time,emg
1742842578.8685734,929
1742842578.8696117,932
1742842578.8706632,932
1742842578.8717153,931
1742842578.872768,932
1742842578.8738234,930
1742842578.874875,935
1742842578.8759334,932
1742842578.8769815,934
1742842578.8780353,933
1742842578.8790874,932
1742842578.88014,933
1742842578.881193,932
1742842578.8822467,933
1742842578.8832998,932
1742842578.8843544,933
1742842578.8854055,931
1742842578.8864596,933
1742842578.8875115,933
1742842578.888564,933
1742842578.8896174,932
1742842578.8906705,932
1742842578.891723,933
1742842578.8927758,931
1742842578.8938305,932
1742842578.8948843,931
1742842578.8959372,932
1742842578.8969905,932
1742842578.8980408,930
1742842578.8990963,932
1742842578.900149,932
1742842578.9012017,931
1742842578.9022558,931
1742842578.9033086,932
1742842578.9043615,932
1742842578.9054148,931
1742842578.9064682,932
1742842578.9075208,933
1742842578.9085739,933
1742842578.9096274,932
1742842578.9106808,932
1742842578.9117339,932
1742842578.912787,932
1742842578.9138415,932
1742842578.9148946,932
1742842578.9159472,932
1742842578.9170005,931
1742842578.9180543,932
1742842578.9191196,932
1742842578.9201682,932
1742842578.9212208,933
1742842578.922275,933
1742842578.923331,934
1742842578.9243848,931
1742842578.9254367,932
1742842578.9264889,932
1742842578.927543,933
1742842578.9285955,933
1742842578.929649,933
1742842578.9307024,933
1742842578.931756,934
1742842578.9328105,933
1742842578.9338627,932
1742842578.934917,934
1742842578.9359698,931
1742842578.9370227,932
1742842578.9380755,931
1742842578.9391253,929
1742842578.9401813,931
1742842578.941234,932
1742842578.9422882,932
1742842578.9433432,934
1742842578.944399,932
1742842578.9454575,933
1742842578.946505,932
1742842578.9475589,931
1742842578.9486113,932
1742842578.9496653,932
1742842578.950721,930
1742842578.9517725,932
1742842578.9528248,931
1742842578.9538832,932
1742842578.9549382,931
1742842578.955991,931
1742842578.9570484,931
1742842578.958104,934
1742842578.959157,931
1742842578.960211,932
1742842578.9612682,932
1742842578.9623196,933
1742842578.9633694,932
1742842578.9644222,932
1742842578.9654763,931
1742842578.9665267,931
1742842578.9675786,931
1742842578.9686944,934
1742842578.969708,932
1742842578.9707596,932
1742842578.971806,932
1742842578.9728599,931
1742842578.9739172,931
1742842578.9749742,932
1742842578.9760308,933
1742842578.9770849,932
1742842578.978142,931
1742842578.9791977,931
1742842578.9802532,932
1742842578.981309,932
1742842578.982359,932
1742842578.983414,931
1742842578.9844656,931
1742842578.9855235,930
1742842578.9865813,924
1742842578.9876332,906
1742842578.9886847,888
1742842578.9897125,879
1742842578.9909158,852
1742842578.9919562,841
1742842578.9930077,832
1742842578.9942377,820
1742842578.9952946,803
1742842578.9963417,790
1742842578.9973948,779
1742842578.9984543,765
1742842578.999503,751
1742842579.0005717,742
1742842579.001617,726
1742842579.002674,713
1742842579.0037243,699
1742842579.0047767,685
1742842579.0058298,671
1742842579.006888,658
1742842579.0079386,643
1742842579.008991,630
1742842579.010044,616
1742842579.0111027,604
1742842579.012153,591
1742842579.0132053,578
1742842579.0142736,567
1742842579.0153263,556
1742842579.0163765,544
1742842579.0174303,532
1742842579.0185065,523
1742842579.0195177,512
1742842579.020943,503
1742842579.0220544,496
1742842579.0230982,482
1742842579.0241485,472
1742842579.0252016,463
1742842579.0262554,454
1742842579.0273142,444
1742842579.028365,435
1742842579.0294182,426
1742842579.0304708,417
1742842579.03153,408
1742842579.0325806,400
1742842579.033634,392
1742842579.034687,384
1742842579.0357463,376
1742842579.0367966,368
1742842579.0378504,361
1742842579.0389035,353
1742842579.0399623,347
1742842579.0410128,339
1742842579.0420663,332
1742842579.04317,326
1742842579.044181,320
1742842579.045232,313
1742842579.0462856,307
1742842579.0473368,301
1742842579.0483868,294
1742842579.0494392,288
1742842579.0504916,282
1742842579.0515501,277
1742842579.052601,272
1742842579.0536547,266
1742842579.054708,260
1742842579.0557666,256
1742842579.0568173,251
1742842579.0578701,246
1742842579.0589228,241
1742842579.0599809,237
1742842579.0610313,232
1742842579.0620844,228
1742842579.0631373,223
1742842579.0641956,219
1742842579.0652459,215
1742842579.0663,211
1742842579.0673528,207
1742842579.068413,204
1742842579.0694683,200
1742842579.0705209,196
1742842579.0715735,192
1742842579.0726342,192
1742842579.0736938,192
1742842579.074743,356
1742842579.0757954,883
1742842579.0768545,931
1742842579.0779052,932
1742842579.0789623,932
1742842579.0800142,933
1742842579.0810728,931
1742842579.082124,932
1742842579.0831769,932
1742842579.0842302,932
1742842579.0852892,932
1742842579.0863392,932
1742842579.0873923,932
1742842579.088468,931
1742842579.0894785,931
1742842579.0905292,933
1742842579.0915816,932
1742842579.0926318,932
1742842579.0936825,932
1742842579.0947335,932
1742842579.0957866,932
1742842579.0968454,932
1742842579.097896,932
1742842579.0989482,932
1742842579.100001,933
1742842579.1010594,932
1742842579.1021104,932
1742842579.1031632,932
1742842579.104216,932
1742842579.1052754,931
1742842579.1063259,932
1742842579.1073787,931
1742842579.1084316,932
1742842579.1094906,932
1742842579.110541,932
1742842579.1115937,934
1742842579.112646,932
1742842579.1137056,931
1742842579.114756,933
1742842579.115809,933
1742842579.116862,934
1742842579.1179218,932
1742842579.1189718,932
1742842579.1200247,933
1742842579.1210775,932
1742842579.1221373,934
1742842579.1231875,932
1742842579.1242402,932
1742842579.1252933,933
1742842579.1263523,932
1742842579.127403,933
1742842579.1284559,932
1742842579.1295528,930
1742842579.1305654,932
1742842579.1328464,930
1742842579.133885,932
1742842579.1349337,933
1742842579.135986,933
1742842579.137039,932
1742842579.138097,931
1742842579.1391475,932
1742842579.1402001,933
1742842579.1412532,935
1742842579.1423113,932
1742842579.1433618,932
1742842579.1444144,932
1742842579.1454673,933
1742842579.146526,934
1742842579.1475768,932
1742842579.1486297,933
1742842579.1496832,934
1742842579.1507423,931
1742842579.1517923,932
1742842579.1528454,932
1742842579.1538987,932
1742842579.1549575,932
1742842579.1560078,932
1742842579.1570606,932
1742842579.1581142,932
1742842579.159173,931
1742842579.1602237,931
1742842579.1612763,932
1742842579.1623354,931
1742842579.1633925,932
1742842579.1644425,931
1742842579.165496,932
1742842579.1665733,929
1742842579.1676133,931
1742842579.1686647,933
1742842579.1697178,934
1742842579.1707373,930
1742842579.1717873,931
1742842579.17284,932
1742842579.1738937,931
1742842579.1749525,931
1742842579.176003,931
1742842579.177056,932
1742842579.1781094,931
1742842579.1791685,931
1742842579.180219,931
1742842579.181272,931
1742842579.1823256,931
1742842579.1833866,931
1742842579.1844366,932
1742842579.18549,932
1742842579.186543,932
1742842579.1876023,931
1742842579.1886523,931
1742842579.1897056,931
1742842579.190759,931
1742842579.191818,931
1742842579.1928692,931
1742842579.1939225,931
1742842579.1949751,931
1742842579.1960342,931
1742842579.1970844,931
1742842579.1981375,931
1742842579.19919,932
1742842579.2002485,932
1742842579.2013073,924
1742842579.2023573,906
1742842579.2034175,891
1742842579.204473,872
1742842579.2055237,857
1742842579.2065766,840
1742842579.2076302,824
1742842579.2086887,808
1742842579.2097394,791
1742842579.2107923,775
1742842579.211873,762
1742842579.212885,745
1742842579.2139366,729
1742842579.2149897,714
1742842579.2160423,702
1742842579.2171004,685
1742842579.2181547,670
1742842579.219205,656
1742842579.2202635,642
1742842579.2213137,629
1742842579.2223673,615
1742842579.2234201,602
1742842579.224479,589
1742842579.22553,577
1742842579.2265828,564
1742842579.2276354,553
1742842579.2286947,541
1742842579.2297454,529
1742842579.230798,518
1742842579.2318513,507
1742842579.2329104,496
1742842579.2339609,485
1742842579.235014,475
1742842579.2360668,465
1742842579.2371259,455
1742842579.2381768,445
1742842579.2392294,436
1742842579.2402823,427
1742842579.2413414,418
1742842579.2423923,410
1742842579.243445,401
1742842579.244498,392
1742842579.2455578,385
1742842579.2466075,378
1742842579.2476606,369
1742842579.2487135,362
1742842579.249776,356
1742842579.2508254,348
1742842579.2518778,341
1742842579.2529356,334
1742842579.2539926,327
1742842579.2550423,321
1742842579.256095,314
1742842579.2571616,309
1742842579.2583234,305
1742842579.2593856,572
1742842579.2604413,931
1742842579.2614942,931
1742842579.2627506,932
1742842579.2654235,932
1742842579.2664146,931
1742842579.2674608,931
1742842579.268513,932
1742842579.2695677,931
1742842579.2706208,931
1742842579.2716737,932
1742842579.272727,931
1742842579.2737772,930
1742842579.274834,933
1742842579.2758873,932
1742842579.2769408,932
1742842579.2779944,931
1742842579.2790475,931
1742842579.2801006,931
1742842579.2811542,932
1742842579.2822077,931
1742842579.2832608,933
1742842579.2843144,932
1742842579.2853677,932
1742842579.2864218,932
1742842579.2874744,932
1742842579.2885277,932
1742842579.2895806,931
1742842579.2906337,933
1742842579.291686,932
1742842579.2927392,932
1742842579.2937932,932
1742842579.2948477,932
1742842579.2958984,933
1742842579.296952,934
1742842579.298005,932
1742842579.29907,929
1742842579.300117,932
1742842579.3011694,931
1742842579.302223,933
1742842579.303276,932
1742842579.3043282,933
1742842579.305381,932
1742842579.3064353,932
1742842579.3074894,932
1742842579.308542,933
1742842579.309596,933
1742842579.310691,929
1742842579.3117025,932
1742842579.3127558,932
1742842579.3138094,932
1742842579.3148632,931
1742842579.3159158,932
1742842579.3169692,932
1742842579.3180227,931
1742842579.3190765,932
1742842579.3201294,932
1742842579.3211825,932
1742842579.322236,932
1742842579.3232899,932
1742842579.3243427,932
1742842579.325396,932
1742842579.3264494,931
1742842579.3275032,934
1742842579.328556,932
1742842579.3296096,932
1742842579.330663,933
1742842579.3317165,931
1742842579.3327696,934
1742842579.333823,932
1742842579.334876,931
1742842579.3359299,932
1742842579.3369827,932
1742842579.3380365,933
1742842579.3390896,932
1742842579.3401434,932
1742842579.3411963,932
1742842579.3422496,931
1742842579.3433032,932
1742842579.3443568,932
1742842579.3454096,932
1742842579.3464632,932
1742842579.347517,934
1742842579.3485699,932
1742842579.349623,932
1742842579.3506763,931
1742842579.3517265,930
1742842579.352783,932
1742842579.3538363,932
1742842579.3548894,932
1742842579.3559432,932
1742842579.356996,932
1742842579.3580499,931
1742842579.359103,931
1742842579.3601563,931
1742842579.3612096,932
1742842579.3622632,931
1742842579.3633165,932
1742842579.3643699,931
1742842579.3654237,931
1742842579.366476,933
1742842579.3675292,932
1742842579.368583,931
1742842579.3696363,931
1742842579.3706896,931
1742842579.3717427,931
1742842579.3727963,931
1742842579.3738494,932
1742842579.3749173,930
1742842579.3759751,930
1742842579.3770247,931
1742842579.37853,928
1742842579.3796287,931
1742842579.3806777,930
1742842579.3817303,931
1742842579.3828092,929
1742842579.3838644,930
1742842579.3849149,922
1742842579.3859673,905
1742842579.3870203,891
1742842579.3880737,876
1742842579.3891277,860
1742842579.3901806,844
1742842579.3912337,829
1742842579.3922873,813
1742842579.3933415,797
1742842579.3943944,781
1742842579.3954475,766
1742842579.396501,750
1742842579.3975549,734
1742842579.3986077,719
1742842579.399661,705
1742842579.4007144,689
1742842579.4017682,675
1742842579.4028213,660
1742842579.4038746,646
1742842579.404928,633
1742842579.4059818,620
1742842579.4070349,606
1742842579.408088,593
1742842579.4091601,582
1742842579.410196,569
1742842579.4112492,557
1742842579.4123025,545
1742842579.4133563,534
1742842579.4144096,522
1742842579.4154632,510
1742842579.4165163,499
1742842579.41757,489
1742842579.4186225,479
1742842579.4196754,470
1742842579.4207282,458
1742842579.4217827,449
1742842579.4228518,450
1742842579.4238992,437
1742842579.4249613,430
1742842579.4260125,422
1742842579.4270644,414
1742842579.4281178,406
1742842579.4291706,398
1742842579.4302247,391
1742842579.4312775,381
1742842579.4323397,382
1742842579.433407,386
1742842579.4344754,390
1742842579.4355857,398
1742842579.4366238,395
1742842579.4376743,386
1742842579.4387312,380
1742842579.4397924,373
1742842579.4408407,365
1742842579.4418933,358
1742842579.4430127,355
1742842579.44415,357
1742842579.4452112,354
1742842579.4462612,347
1742842579.4473183,346
1742842579.4483821,339
1742842579.4494338,337
1742842579.4504876,331
1742842579.4515464,326
1742842579.4526122,321
1742842579.4536655,315
1742842579.4547606,313
1742842579.4559565,318
1742842579.4568956,467
1742842579.4579566,931
1742842579.4655068,931
1742842579.4656374,930
1742842579.466691,931
1742842579.4677541,932
1742842579.468804,932
1742842579.4698558,931
1742842579.4709098,931
1742842579.4719646,932
1742842579.473463,935
1742842579.4741077,932
1742842579.4751818,931
1742842579.4762495,931
1742842579.4773257,933
1742842579.4784029,932
1742842579.4794602,932
1742842579.480516,931
1742842579.481567,931
1742842579.482619,932
1742842579.4836864,931
1742842579.4847307,932
1742842579.4857833,932
1742842579.4868526,931
1742842579.4879003,931
1742842579.488962,932
1742842579.4900389,932
1742842579.4910958,930
1742842579.492138,931
1742842579.4932008,931
1742842579.4942694,929
1742842579.4953065,931
1742842579.4963582,932
1742842579.4974194,933
1742842579.4984713,931
1742842579.4995239,934
1742842579.5005736,933
1742842579.5016332,931
1742842579.5026834,933
1742842579.503743,929
1742842579.5047934,932
1742842579.5058515,931
1742842579.5069008,932
1742842579.507953,932
1742842579.5090058,932
1742842579.5100648,932
1742842579.511115,931
1742842579.5121675,931
1742842579.51322,931
1742842579.514279,932
1742842579.5153291,932
1742842579.5163815,932
1742842579.5174348,935
1742842579.5184932,932
1742842579.5195434,933
1742842579.520596,933
1742842579.5216508,933
1742842579.5227091,932
1742842579.523759,932
1742842579.5248113,932
1742842579.525887,929
1742842579.5269349,933
1742842579.5279856,931
1742842579.5290384,932
1742842579.5300953,932
1742842579.5311458,932
1742842579.5321982,931
1742842579.5332508,931
1742842579.5343094,932
1742842579.5353594,931
1742842579.5364122,931
1742842579.5374691,931
1742842579.538527,933
1742842579.5395775,933
1742842579.54063,933
1742842579.5416887,931
1742842579.5427432,931
1742842579.5437937,932
1742842579.5448465,932
1742842579.5458999,933
1742842579.5469584,932
1742842579.548015,931
1742842579.5490668,931
1742842579.5501184,931
1742842579.5511777,931
1742842579.5522282,931
1742842579.553281,932
1742842579.5543349,932
1742842579.5553935,934
1742842579.5564442,932
1742842579.5574973,932
1742842579.5585504,931
1742842579.5596092,931
1742842579.5606596,931
1742842579.5617132,932
1742842579.562772,933
1742842579.5638294,932
1742842579.5648794,932
1742842579.5659325,931
1742842579.5670083,928
1742842579.5680487,932
1742842579.569099,931
1742842579.5701525,932
1742842579.5711718,929
1742842579.5722225,931
1742842579.573275,931
1742842579.5743287,931
1742842579.5753875,931
1742842579.5764377,931
1742842579.577491,931
1742842579.578544,931
1742842579.5796027,932
1742842579.580653,931
1742842579.581707,931
1742842579.5827591,931
1742842579.583818,925
1742842579.5848682,907
1742842579.5859213,892
1742842579.5869741,878
1742842579.588033,860
1742842579.5890837,843
1742842579.590136,827
1742842579.591189,811
1742842579.592248,795
1742842579.5932984,778
1742842579.594351,763
1742842579.5954041,747
1742842579.5964646,735
1742842579.5975173,718
1742842579.5985699,703
1742842579.5996218,688
1742842579.6006813,674
1742842579.601732,661
1742842579.6027844,647
1742842579.6038377,634
1742842579.604897,621
1742842579.6059477,608
1742842579.6070004,595
1742842579.6080976,585
1742842579.609105,571
1742842579.6101565,560
1742842579.6112094,548
1742842579.6122649,538
1742842579.613315,526
1742842579.6143677,514
1742842579.6154206,503
1742842579.616478,493
1742842579.6175287,483
1742842579.6185813,472
1742842579.6196342,462
1742842579.6206932,453
1742842579.6217444,443
1742842579.6227968,434
1742842579.6238496,424
1742842579.6249092,416
1742842579.6259596,407
1742842579.6270123,399
1742842579.6280653,390
1742842579.6291246,382
1742842579.6301756,374
1742842579.6312282,366
1742842579.632281,359
1742842579.6335058,359
1742842579.6345484,360
1742842579.635602,354
1742842579.636657,349
1742842579.6377084,343
1742842579.638761,339
1742842579.6398144,333
1742842579.640869,328
1742842579.641922,322
1742842579.6429746,315
1742842579.6440282,309
1742842579.645078,304
1742842579.6461353,298
1742842579.6471884,293
1742842579.648242,286
1742842579.6492958,281
1742842579.650349,275
1742842579.651402,270
1742842579.652455,264
1742842579.6535103,260
1742842579.6545634,254
1742842579.6556165,249
1742842579.6566699,244
1742842579.6577244,241
1742842579.6587777,238
1742842579.6598308,233
1742842579.660883,228
1742842579.661937,224
1742842579.6629899,220
1742842579.664043,216
1742842579.6650965,211
1742842579.6661503,208
1742842579.6672034,204
1742842579.6682568,200
1742842579.6693099,196
1742842579.6703644,193
1742842579.6714168,189
1742842579.6724703,186
1742842579.6735237,182
1742842579.6745777,180
1742842579.6756306,176
1742842579.6766841,173
1742842579.677738,170
1742842579.678792,168
1742842579.6798449,165
1742842579.680898,162
1742842579.6819687,159
1742842579.6830049,157
1742842579.6840584,154
1742842579.6851115,151
1742842579.686178,151
1742842579.6872272,148
1742842579.6882796,146
1742842579.689333,144
1742842579.690387,141
1742842579.6914396,139
1742842579.6924927,146
1742842579.6935468,469
1742842579.694601,931
1742842579.6956537,932
1742842579.6967068,933
1742842579.6977606,932
1742842579.698814,931
1742842579.6998672,931
1742842579.7009206,931
1742842579.701974,931
1742842579.7030275,932
1742842579.7040808,932
1742842579.7051342,932
1742842579.7061877,931
1742842579.7072415,932
1742842579.7082944,932
1742842579.7093477,931
1742842579.7104008,932
1742842579.7114542,931
1742842579.7125065,932
1742842579.7135613,930
1742842579.714614,931
1742842579.7156677,932
1742842579.7167206,932
1742842579.7177746,932
1742842579.7188284,932
1742842579.7198815,932
1742842579.7209342,932
1742842579.7219877,933
1742842579.7230375,931
1742842579.7240942,932
1742842579.7251475,932
1742842579.7262008,933
1742842579.7272546,933
1742842579.7283075,932
1742842579.7293606,932
1742842579.7304146,931
1742842579.7314677,932
1742842579.7325208,932
1742842579.7335742,932
1742842579.7346272,933
1742842579.735681,932
1742842579.736734,931
1742842579.7377875,934
1742842579.7388406,932
1742842579.739895,933
1742842579.7409472,932
1742842579.7420008,932
1742842579.7430542,932
1742842579.7441077,932
1742842579.7451603,931
1742842579.7462142,932
1742842579.7472672,932
1742842579.748321,934
1742842579.7493737,933
1742842579.7504275,933
1742842579.7514806,934
1742842579.7525344,932
1742842579.7535875,932
1742842579.7546406,931
1742842579.755694,933
1742842579.7567503,933
1742842579.7578018,932
1742842579.7588549,932
1742842579.7599146,936
1742842579.7611215,935
1742842579.7620296,931
1742842579.7630758,931
1742842579.7641506,929
1742842579.765185,932
1742842579.766255,932
1742842579.767311,931
1742842579.7683606,931
1742842579.7694192,932
1742842579.7704663,932
1742842579.7715192,932
1742842579.772573,932
1742842579.773626,932
1742842579.7746787,932
1742842579.775732,932
1742842579.7767856,932
1742842579.777839,932
1742842579.778892,932
1742842579.7799451,933
1742842579.780999,934
1742842579.782052,933
1742842579.7831054,932
1742842579.7841585,932
1742842579.7852123,932
1742842579.7862651,931
1742842579.7873182,931
1742842579.7883718,931
1742842579.789426,931
1742842579.790478,932
1742842579.7915313,933
1742842579.7925844,933
1742842579.7936387,932
1742842579.7946916,932
1742842579.7957447,932
1742842579.796798,932
1742842579.7978518,932
1742842579.798905,932
1742842579.799958,933
1742842579.8010118,932
1742842579.8020654,932
1742842579.803118,932
1742842579.804171,932
1742842579.8052208,932
1742842579.806278,932
1742842579.8073308,932
1742842579.808384,931
1742842579.809438,932
1742842579.8104904,932
1742842579.8115437,932
1742842579.812597,932
1742842579.8136506,932
1742842579.8147035,932
1742842579.8157566,932
1742842579.81681,931
1742842579.8178637,931
1742842579.8189163,931
1742842579.8199697,931
1742842579.8210227,915
1742842579.8220766,896
1742842579.8231294,880
1742842579.8241825,862
1742842579.8252356,846
1742842579.8262897,828
1742842579.8273425,810
1742842579.8283958,794
1742842579.8294494,778
1742842579.8305025,762
1742842579.8315554,746
1742842579.8326085,732
1742842579.8336623,715
1742842579.8347158,700
1742842579.8357685,684
1742842579.8368218,670
1742842579.8378751,655
1742842579.838929,643
1742842579.8399818,628
1742842579.841035,614
1742842579.8421094,602
1742842579.8431416,588
1742842579.844195,576
1742842579.8452477,564
1742842579.8463016,553
1742842579.8473542,541
1742842579.8484073,530
1742842579.8494644,518
1742842579.8505144,507
1742842579.8515687,503
1742842579.852638,507
1742842579.8536925,501
1742842579.8575962,478
1742842579.8585877,469
1742842579.85961,459
1742842579.8606617,448
1742842579.8617148,438
1742842579.8627684,431
1742842579.864528,420
1742842579.8655646,413
1742842579.866605,403
1742842579.8681228,395
1742842579.868973,387
1742842579.87001,384
1742842579.8710608,384
1742842579.8721135,383
1742842579.8731658,382
1742842579.8742204,378
1742842579.8752732,373
1742842579.8763254,369
1742842579.8773782,364
1742842579.8784316,358
1742842579.879485,352
1742842579.8805373,345
1742842579.8815913,341
1742842579.8826437,333
1742842579.8836982,327
1742842579.8847501,321
1742842579.8858037,314
1742842579.8868566,308
1742842579.8879097,301
1742842579.888962,295
1742842579.8900166,290
1742842579.8910687,283
1742842579.892122,279
1742842579.8931742,273
1742842579.8942277,267
1742842579.8952804,262
1742842579.896334,257
1742842579.8973863,251
1742842579.8984392,246
1742842579.8994918,242
1742842579.9005454,238
1742842579.9015982,233
1742842579.9026506,228
1742842579.9037046,224
1742842579.904757,220
1742842579.9058125,216
1742842579.9068658,211
1742842579.9079158,208
1742842579.9089735,204
1742842579.910026,200
1742842579.9110801,196
1742842579.9121332,193
1742842579.913186,190
1742842579.9142404,186
1742842579.9152937,183
1742842579.9163463,180
1742842579.9174004,177
1742842579.918453,174
1742842579.919507,170
1742842579.92056,168
1742842579.921613,165
1742842579.9226673,161
1742842579.9237204,159
1742842579.9247737,157
1742842579.925827,154
1742842579.9268818,151
1742842579.9279337,148
1742842579.9289875,147
1742842579.9300408,144
1742842579.9310951,142
1742842579.9321473,139
1742842579.933201,137
1742842579.9342544,135
1742842579.9353077,133
1742842579.936362,131
1742842579.937415,129
1742842579.9384675,127
1742842579.9395218,125
1742842579.9405742,123
1742842579.9416282,226
1742842579.9426816,761
1742842579.943735,931
1742842579.944804,930
1742842579.945935,933
1742842579.9469402,931
1742842579.9479864,932
1742842579.9493625,929
1742842579.9504147,931
1742842579.9514625,931
1742842579.9525151,931
1742842579.9535701,931
1742842579.9546227,932
1742842579.9556863,931
1742842579.9567444,933
1742842579.9577954,932
1742842579.9588478,932
1742842579.9599009,931
1742842579.9609694,930
1742842579.9620252,931
1742842579.9632878,930
1742842579.9643188,931
1742842579.9653704,931
1742842579.966423,932
1742842579.9674761,932
1742842579.96853,932
1742842579.9695826,931
1742842579.9706352,932
1742842579.9716883,932
1742842579.9727416,933
1742842579.9737947,932
1742842579.9748478,932
1742842579.9759004,932
1742842579.9769537,932
1742842579.9780598,935
1742842579.9790661,932
1742842579.9801323,933
1742842579.9811814,931
1742842579.982235,932
1742842579.9832885,932
1742842579.984342,932
1742842579.9853952,931
1742842579.9864519,931
1742842579.9875035,932
1742842579.9885569,932
1742842579.9896097,931
1742842579.9906628,935
1742842579.9917161,933
1742842579.992769,933
1742842579.9938216,932
1742842579.995022,929
1742842579.996071,931
1742842579.997039,932
1742842579.998089,932
1742842579.9991415,932
1742842580.0002084,928
1742842580.0012848,933
1742842580.0023165,931
1742842580.0033677,932
1742842580.0044188,931
1742842580.0054896,931
1742842580.0065348,931
1742842580.0075862,932
1742842580.0086384,932
1742842580.0096917,932
1742842580.0107443,932
1742842580.0117977,931
1742842580.0128498,932
1742842580.0139031,931
1742842580.014956,932
1742842580.0160093,932
1742842580.0170617,931
1742842580.0181148,932
1742842580.0191674,932
1742842580.0202246,933
1742842580.0212736,932
1742842580.0223372,931
1742842580.023386,932
1742842580.024439,931
1742842580.0254686,932
1742842580.0265214,932
1742842580.027594,931
1742842580.028627,932
1742842580.02968,932
1742842580.0307329,932
1742842580.0317862,932
1742842580.0328386,933
1742842580.0338917,933
1742842580.0349443,933
1742842580.0359976,932
1742842580.03705,932
1742842580.0381048,931
1742842580.039158,932
1742842580.0402114,932
1742842580.0412643,933
1742842580.042318,934
1742842580.0433714,933
1742842580.044425,932
1742842580.0454783,931
1742842580.0465317,931
1742842580.0475848,933
1742842580.0486388,933
1742842580.049692,932
1742842580.050745,932
1742842580.0517983,932
1742842580.052852,931
1742842580.0539052,931
1742842580.0549583,931
1742842580.0560114,931
1742842580.0570655,933
1742842580.0581183,931
1742842580.059181,932
1742842580.0602298,932
1742842580.0612826,932
1742842580.0623357,932
1742842580.063388,932
1742842580.064442,932
1742842580.0654664,931
1742842580.0665185,931
1742842580.0675714,931
1742842580.0686305,930
1742842580.0696783,927
1742842580.0707307,906
1742842580.0717838,888
1742842580.0728369,872
1742842580.0738895,854
1742842580.074942,837
1742842580.0759952,821
1742842580.0770485,803
1742842580.0781178,789
1742842580.0791705,773
1742842580.080223,757
1742842580.0812879,741
1742842580.0823371,725
1742842580.0833998,710
1742842580.084448,695
1742842580.08547,683
1742842580.086531,667
1742842580.0875804,653
1742842580.088633,639
1742842580.0896866,626
1742842580.0907388,612
1742842580.0917914,600
1742842580.0928442,587
1742842580.0938978,573
1742842580.0949504,561
1742842580.096003,550
1742842580.097056,538
1742842580.0981095,526
1742842580.0991616,515
1742842580.1002147,504
1742842580.1012673,494
1742842580.102321,484
1742842580.1033733,474
1742842580.104426,463
1742842580.1054666,454
1742842580.1065197,444
1742842580.1075728,434
1742842580.108626,425
1742842580.109676,418
1742842580.110733,409
1742842580.1117861,399
1742842580.1128397,391
1742842580.113893,383
1742842580.1149457,375
1742842580.1159983,367
1742842580.1170511,360
1742842580.1181056,352
1742842580.1191583,345
1742842580.1202114,339
1742842580.1212647,331
1742842580.1223185,324
1742842580.1233714,317
1742842580.1244247,311
1742842580.1254785,304
1742842580.1265323,298
1742842580.127585,292
1742842580.1286383,286
1742842580.1296918,280
1742842580.1307456,275
1742842580.1317983,269
1742842580.1328514,264
1742842580.1339052,258
1742842580.1349587,254
1742842580.1360135,258
1742842580.1370668,261
1742842580.1381202,257
1742842580.139174,254
1742842580.1402264,251
1742842580.1412797,247
1742842580.142333,243
1742842580.1433866,240
1742842580.1444395,236
1742842580.1454968,235
1742842580.146585,233
1742842580.1476073,229
1742842580.14866,225
1742842580.149714,222
1742842580.150767,219
1742842580.1518388,220
1742842580.152885,217
1742842580.1539392,214
1742842580.1549928,211
1742842580.1560457,207
1742842580.157099,203
1742842580.1581523,200
1742842580.1592062,197
1742842580.160259,193
1742842580.1613123,190
1742842580.1623657,187
1742842580.1634195,183
1742842580.1644723,180
1742842580.1655257,177
1742842580.166579,174
1742842580.1676326,170
1742842580.1686857,168
1742842580.169739,164
1742842580.170792,162
1742842580.171846,159
1742842580.1728985,156
1742842580.173952,154
1742842580.1750052,151
1742842580.1760585,151
1742842580.1771116,148
1742842580.178165,146
1742842580.1792178,143
1742842580.1802716,142
1742842580.1813242,139
1742842580.1823778,137
1742842580.1834316,135
1742842580.1844842,133
1742842580.1855376,131
1742842580.1865907,129
1742842580.1876414,129
1742842580.1886978,127
1742842580.1897514,124
1742842580.1908045,123
1742842580.1918583,164
1742842580.1929114,668
1742842580.1939645,931
1742842580.1950176,932
1742842580.1960711,932
1742842580.1971238,932
1742842580.1981778,932
1742842580.199231,932
1742842580.2002847,931
1742842580.2013373,933
1742842580.2023911,933
1742842580.2034447,932
1742842580.2044983,932
1742842580.2055511,932
1742842580.2066042,934
1742842580.2076576,932
1742842580.2087111,932
1742842580.2097642,932
1742842580.2108176,932
1742842580.2118707,932
1742842580.2129242,931
1742842580.213977,932
1742842580.2150302,934
1742842580.2160926,932
1742842580.2171502,931
1742842580.2182007,931
1742842580.2192533,931
1742842580.2203064,931
1742842580.22136,931
1742842580.222413,932
1742842580.2234662,931
1742842580.2245321,930
1742842580.2255728,933
1742842580.2266262,932
1742842580.2276793,932
1742842580.2287333,931
1742842580.2297864,931
1742842580.2308395,932
1742842580.2318928,932
1742842580.2329464,932
1742842580.2339997,932
1742842580.2350526,933
1742842580.2361057,932
1742842580.2371595,932
1742842580.2382126,934
1742842580.2392657,933
1742842580.240319,934
1742842580.2413726,932
1742842580.242426,932
1742842580.243479,932
1742842580.244532,932
1742842580.2455862,931
1742842580.246639,932
1742842580.247692,931
1742842580.2487452,932
1742842580.2497993,932
1742842580.2508519,932
1742842580.2519052,933
1742842580.2529585,932
1742842580.254012,932
1742842580.2550652,932
1742842580.2561183,932
1742842580.2571714,932
1742842580.2582343,931
1742842580.2592833,931
1742842580.2603354,932
1742842580.261389,931
1742842580.2624419,931
1742842580.2634983,932
1742842580.264555,929
1742842580.265605,931
1742842580.2666607,933
1742842580.2677135,933
1742842580.2687662,931
1742842580.26982,932
1742842580.270872,932
1742842580.2719247,932
1742842580.2729776,932
1742842580.2740324,932
1742842580.275085,932
1742842580.2761383,932
1742842580.2771916,932
1742842580.2782454,931
1742842580.279298,933
1742842580.2803512,932
1742842580.2814045,932
1742842580.282458,932
1742842580.2835207,931
1742842580.2845695,932
1742842580.2856224,932
1742842580.2866843,933
1742842580.2877336,931
1742842580.288786,933
1742842580.2899985,933
1742842580.2910438,931
1742842580.2920942,931
1742842580.2931468,931
1742842580.2942002,931
1742842580.2952533,931
1742842580.2963057,932
1742842580.2973585,931
1742842580.298408,931
1742842580.2994645,932
1742842580.300517,932
1742842580.3015704,933
1742842580.3026235,931
1742842580.303676,931
1742842580.3047285,931
1742842580.3057818,931
1742842580.306835,931
1742842580.3078873,931
1742842580.30894,931
1742842580.309993,932
1742842580.3110464,931
1742842580.3120987,932
1742842580.3131516,931
1742842580.3142056,931
1742842580.3152592,931
1742842580.316312,931
1742842580.3173652,931
1742842580.3184187,934
1742842580.3194723,932
1742842580.3205254,931
1742842580.3215787,919
1742842580.322632,903
1742842580.323686,883
1742842580.3247385,865
1742842580.3257923,849
1742842580.3268454,831
1742842580.3278995,813
1742842580.3289518,796
1742842580.3300052,780
1742842580.3310585,764
1742842580.332112,748
1742842580.3331652,733
1742842580.3342183,718
1742842580.3352907,704
1742842580.336325,688
1742842580.337378,672
1742842580.3384318,658
1742842580.3394854,644
1742842580.340538,630
1742842580.3415916,617
1742842580.342645,604
1742842580.3436987,591
1742842580.3447514,578
1742842580.3458052,566
1742842580.3468583,554
1742842580.3479118,542
1742842580.3489647,530
1742842580.350018,519
1742842580.3510716,508
1742842580.3521252,498
1742842580.3531778,486
1742842580.3542314,476
1742842580.3552845,465
1742842580.3563383,455
1742842580.357391,446
1742842580.3584445,437
1742842580.3594975,427
1742842580.360551,418
1742842580.3616045,409
1742842580.3626575,401
1742842580.3637106,393
1742842580.3647642,385
1742842580.3658175,377
1742842580.3668709,369
1742842580.367924,361
1742842580.3689775,354
1742842580.3700309,346
1742842580.371084,339
1742842580.3721383,332
1742842580.3731909,325
1742842580.3742435,319
1742842580.375297,312
1742842580.3763466,307
1742842580.377403,300
1742842580.3784566,294
1742842580.3795097,288
1742842580.3805635,282
1742842580.3816159,276
1742842580.382669,271
1742842580.383736,269
1742842580.3847852,265
1742842580.3858373,261
1742842580.3868904,256
1742842580.3879437,252
1742842580.3889973,247
1742842580.3900504,242
1742842580.3911035,237
1742842580.3921566,233
1742842580.3932106,229
1742842580.3942633,225
1742842580.3953164,220
1742842580.3963697,216
1742842580.3974235,212
1742842580.3984764,208
1742842580.4001393,204
1742842580.40119,201
1742842580.402244,197
1742842580.403297,194
1742842580.4043503,190
1742842580.4054039,187
1742842580.4064572,183
1742842580.40751,181
1742842580.4085634,179
1742842580.4096174,176
1742842580.4106703,174
1742842580.4117236,171
1742842580.4127767,168
1742842580.4138308,166
1742842580.4148834,162
1742842580.4159365,159
1742842580.4169898,157
1742842580.4180434,155
1742842580.4190962,152
1742842580.4201496,149
1742842580.4212024,147
1742842580.4222565,145
1742842580.4233088,142
1742842580.4243622,140
1742842580.425416,156
1742842580.4264693,582
1742842580.4275217,932
1742842580.428575,934
1742842580.429649,931
1742842580.4306812,932
1742842580.4317346,934
1742842580.4327877,932
1742842580.4338415,932
1742842580.434894,933
1742842580.4359472,931
1742842580.4370005,932
1742842580.438054,932
1742842580.4391067,932
1742842580.4401603,931
1742842580.4412131,932
1742842580.442267,932
1742842580.4433196,932
1742842580.4443727,932
1742842580.4454265,933
1742842580.446497,932
1742842580.4475377,934
1742842580.4486077,932
1742842580.4496546,932
1742842580.4507096,933
1742842580.4517612,933
1742842580.452825,931
1742842580.453881,930
1742842580.4549305,932
1742842580.455983,932
1742842580.457036,931
1742842580.4581409,935
1742842580.4591713,930
1742842580.460215,932
1742842580.4612722,931
1742842580.4623241,931
1742842580.4633772,933
1742842580.4644291,932
1742842580.4654686,932
1742842580.4665225,932
1742842580.4675748,932
1742842580.4686275,932
1742842580.4696805,931
1742842580.4707332,932
1742842580.4718142,931
1742842580.472839,932
1742842580.4738922,932
1742842580.474945,933
1742842580.4759977,933
1742842580.4770505,933
1742842580.478104,933
1742842580.4791577,931
1742842580.480211,931
1742842580.4812639,931
1742842580.4823196,931
1742842580.4833882,931
1742842580.4844334,932
1742842580.4854693,932
1742842580.4865324,931
1742842580.4875813,932
1742842580.4886343,933
1742842580.489688,932
1742842580.4907405,932
1742842580.4917965,934
1742842580.492875,929
1742842580.4939184,932
1742842580.4949684,934
1742842580.4960213,933
1742842580.4970748,934
1742842580.498142,931
1742842580.4992073,932
1742842580.5002494,932
1742842580.5013025,933
1742842580.502355,933
1742842580.5034263,930
1742842580.5044715,932
1742842580.5055244,932
1742842580.5065765,932
1742842580.5076296,932
1742842580.5086858,930
1742842580.5097353,932
1742842580.5107882,932
1742842580.511841,932
1742842580.5128944,932
1742842580.5139472,932
1742842580.5149999,932
1742842580.5160525,932
1742842580.5171058,931
1742842580.5181587,931
1742842580.5192113,931
1742842580.5202641,931
1742842580.5213177,931
1742842580.52237,932
1742842580.5234227,931
1742842580.5244753,931
1742842580.525693,933
1742842580.526589,933
1742842580.5276496,931
1742842580.5286984,932
1742842580.5297513,931
1742842580.5308037,931
1742842580.5318563,933
1742842580.5329094,933
1742842580.533966,932
1742842580.535018,933
1742842580.536071,934
1742842580.5371244,931
1742842580.538179,931
1742842580.5392315,931
1742842580.5402849,931
1742842580.5413382,931
1742842580.5424082,931
1742842580.5434635,931
1742842580.5445125,931
1742842580.545606,931
1742842580.546619,931
1742842580.547672,931
1742842580.5487254,932
1742842580.549779,931
1742842580.5508318,931
1742842580.5518851,931
1742842580.5529382,932
1742842580.553992,932
1742842580.5550447,932
1742842580.556098,933
1742842580.5571513,917
1742842580.558205,896
1742842580.5592577,879
1742842580.560311,861
1742842580.5613642,844
1742842580.562418,828
1742842580.5634708,809
1742842580.564524,792
1742842580.5655782,776
1742842580.566632,758
1742842580.5676847,743
1742842580.5687377,727
1742842580.5697913,712
1742842580.5708537,698
1742842580.571903,682
1742842580.5729558,668
1742842580.57401,654
1742842580.5750632,640
1742842580.576116,627
1742842580.5771692,613
1742842580.5782228,600
1742842580.5792766,587
1742842580.5803292,574
1742842580.5813828,562
1742842580.582437,550
1742842580.5834904,538
1742842580.5845428,527
1742842580.585596,516
1742842580.586646,507
1742842580.5877025,494
1742842580.5887556,483
1742842580.5898097,474
1742842580.5908635,464
1742842580.591916,453
1742842580.5929692,444
1742842580.594023,435
1742842580.5950766,425
1742842580.5961294,416
1742842580.5971828,407
1742842580.598236,399
1742842580.59929,391
1742842580.6003428,382
1742842580.6013956,374
1742842580.6024492,366
1742842580.603503,359
1742842580.6045558,351
1742842580.6056092,344
1742842580.6066628,336
1742842580.607716,330
1742842580.608769,323
1742842580.6098225,316
1742842580.6108758,310
1742842580.6119297,304
1742842580.6129823,298
1742842580.6140356,292
1742842580.615089,286
1742842580.6161425,280
1742842580.6171956,274
1742842580.618249,269
1742842580.619302,263
1742842580.6203556,258
1742842580.6214087,253
1742842580.6224623,248
1742842580.623536,244
1742842580.6245685,239
1742842580.625622,235
1742842580.6266747,230
1742842580.6277359,226
1742842580.6287863,221
1742842580.6298397,217
1742842580.6308925,213
1742842580.631946,209
1742842580.632999,205
1742842580.634052,201
1742842580.6351135,198
1742842580.6361642,194
1742842580.6372166,191
1742842580.638272,197
1742842580.6393259,217
1742842580.6403797,655
1742842580.6414323,934
1742842580.6424851,932
1742842580.6435385,931
1742842580.644592,934
1742842580.645645,932
1742842580.646698,932
1742842580.647751,931
1742842580.648805,931
1742842580.6498578,932
1742842580.650911,932
1742842580.651964,931
1742842580.6530175,931
1742842580.6540709,932
1742842580.6551237,932
1742842580.6561768,932
1742842580.6572306,932
1742842580.6582937,931
1742842580.6593425,934
1742842580.6603959,934
1742842580.6614485,933
1742842580.6625006,932
1742842580.6635532,931
1742842580.6646025,930
1742842580.6656594,933
1742842580.666712,933
1742842580.6677647,932
1742842580.6688182,934
1742842580.6698709,934
1742842580.6709235,933
1742842580.671976,933
1742842580.6730256,932
1742842580.6740947,931
1742842580.675151,932
1742842580.6761997,934
1742842580.6772523,932
1742842580.678306,932
1742842580.679359,932
1742842580.680412,932
1742842580.6814659,933
1742842580.6825185,932
1742842580.6835828,932
1742842580.684631,932
1742842580.685684,932
1742842580.6867454,931
1742842580.6877947,932
1742842580.6888468,933
1742842580.689901,932
1742842580.6909533,932
1742842580.692006,932
1742842580.693059,932
1742842580.6941123,934
1742842580.6951647,932
1742842580.6962175,932
1742842580.6972706,933
1742842580.6983237,933
1742842580.699376,931
1742842580.700429,932
1742842580.701468,934
1742842580.70252,934
1742842580.7035723,932
1742842580.7046251,932
1742842580.7056744,932
1742842580.706731,931
1742842580.7077837,933
1742842580.7088366,932
1742842580.7098901,934
1742842580.7109423,932
1742842580.7119951,932
1742842580.713048,932
1742842580.7141025,931
1742842580.7151554,931
1742842580.7162085,932
1742842580.7172616,932
1742842580.7183156,931
1742842580.7193685,933
1742842580.7204216,932
1742842580.7214754,931
1742842580.722529,932
1742842580.7235818,932
1742842580.724635,932
1742842580.7256882,932
1742842580.726742,932
1742842580.7277946,931
1742842580.728848,931
1742842580.7299013,931
1742842580.7309551,932
1742842580.732008,931
1742842580.733061,932
1742842580.7341146,932
1742842580.7351682,932
1742842580.7362208,931
1742842580.7372742,931
1742842580.7383275,932
1742842580.7393813,931
1742842580.740434,931
1742842580.7414875,931
1742842580.7425861,928
1742842580.7435944,931
1742842580.7446477,931
1742842580.745701,933
1742842580.7467546,930
1742842580.7478073,931
1742842580.7488606,932
1742842580.7499142,931
1742842580.7509677,931
1742842580.7520206,932
1742842580.7530737,932
1742842580.754127,931
1742842580.7551808,931
1742842580.7562335,931
1742842580.7572865,931
1742842580.7583401,932
1742842580.7593937,933
1742842580.7604465,933
1742842580.7615,933
1742842580.762553,931
1742842580.7636068,931
1742842580.7646594,931
1742842580.765716,932
1742842580.766769,933
1742842580.7678223,932
1742842580.7692304,928
1742842580.7703214,930
1742842580.77137,929
1742842580.7724223,912
1742842580.7734764,894
1742842580.7745295,877
1742842580.7755833,861
1742842580.776636,844
1742842580.7776895,828
1742842580.7787426,811
1742842580.7797964,795
1742842580.7808537,780
1742842580.7819064,764
1742842580.7829587,748
1742842580.7840123,733
1742842580.785065,717
1742842580.7861187,702
1742842580.7871716,687
1742842580.7882252,673
1742842580.789278,658
1742842580.7903314,644
1742842580.791385,629
1742842580.7924385,616
1742842580.7934914,602
1742842580.7945447,590
1742842580.7955978,577
1742842580.7966516,564
1742842580.7977047,552
1742842580.7987576,540
1742842580.7998111,529
1742842580.800865,518
1742842580.8019183,507
1742842580.8029714,497
1742842580.8040242,487
1742842580.805078,476
1742842580.8061311,466
1742842580.8071845,456
1742842580.8082745,447
1742842580.8092906,437
1742842580.8103442,428
1742842580.811397,419
1742842580.8124506,412
1742842580.8135037,403
1742842580.8145566,394
1742842580.81561,386
1742842580.8166635,377
1742842580.817717,370
1742842580.81877,362
1742842580.8198233,354
1742842580.8208768,347
1742842580.82193,340
1742842580.8229833,333
1742842580.8240364,326
1742842580.82509,319
1742842580.826143,312
1742842580.8271961,305
1742842580.8282495,299
1742842580.829303,293
1742842580.830357,288
1742842580.8314097,282
1742842580.8324628,276
1742842580.833517,271
1742842580.8345697,265
1742842580.8356225,260
1742842580.8366756,256
1742842580.8377297,251
1742842580.8387825,245
1742842580.8398352,241
1742842580.8408883,236
1742842580.8419423,232
1742842580.8429952,227
1742842580.844048,223
1742842580.845102,218
1742842580.8461554,214
1742842580.847208,210
1742842580.8482614,206
1742842580.8493109,203
1742842580.850368,199
1742842580.851421,195
1742842580.8524745,191
1742842580.8535285,188
1742842580.8545814,185
1742842580.8556345,182
1742842580.8566875,178
1742842580.857741,176
1742842580.8588035,173
1742842580.859853,171
1742842580.8609047,168
1742842580.8619585,165
1742842580.8630106,162
1742842580.8640635,159
1742842580.8651164,156
1742842580.86617,154
1742842580.867222,152
1742842580.868275,149
1742842580.86933,148
1742842580.8703885,156
1742842580.871667,181
1742842580.8725607,646
1742842580.873621,931
1742842580.8746846,928
1742842580.8757277,932
1742842580.8767796,934
1742842580.8778324,934
1742842580.8788857,934
1742842580.8799381,933
1742842580.8809907,933
1742842580.882044,932
1742842580.8830976,931
1742842580.8841507,932
1742842580.8852034,932
1742842580.8862977,929
1742842580.8873103,932
1742842580.8883626,932
1742842580.8894348,932
1742842580.8904696,931
1742842580.8915217,932
1742842580.8925748,933
1742842580.893628,933
1742842580.8946815,933
1742842580.8957338,932
1742842580.8967865,933
1742842580.8978395,931
1742842580.898893,932
1742842580.8999455,932
1742842580.900998,932
1742842580.9020512,932
1742842580.9031048,932
1742842580.9041572,932
1742842580.905211,933
1742842580.9062674,932
1742842580.9073298,931
1742842580.908377,932
1742842580.9094296,935
1742842580.910482,932
1742842580.9115486,931
1742842580.912604,931
1742842580.913656,931
1742842580.914708,931
1742842580.9157617,932
1742842580.9168143,932
1742842580.9178681,932
1742842580.9189215,931
1742842580.9199755,932
1742842580.9210281,932
1742842580.9220817,932
1742842580.923136,931
1742842580.924189,933
1742842580.925242,932
1742842580.926296,934
1742842580.9273462,931
1742842580.928403,932
1742842580.9294615,932
1742842580.9305098,932
1742842580.9315639,932
1742842580.9326165,932
1742842580.933671,933
1742842580.9347239,933
1742842580.9357774,932
1742842580.9368305,932
1742842580.9378839,931
1742842580.9389374,931
1742842580.9399912,932
1742842580.9410439,932
1742842580.942098,931
1742842580.943151,932
1742842580.944205,931
1742842580.945258,932
1742842580.9463112,932
1742842580.9473646,932
1742842580.948432,930
1742842580.9494789,931
1742842580.950553,930
1742842580.951591,932
1742842580.952644,931
1742842580.953697,933
1742842580.9547608,931
1742842580.9558187,930
1742842580.9568703,932
1742842580.957922,932
1742842580.9589894,934
1742842580.9600441,932
1742842580.9610946,933
1742842580.962153,932
1742842580.9632044,931
1742842580.964259,931
1742842580.9653118,932
1742842580.9663672,931
1742842580.9674196,932
1742842580.9684727,932
1742842580.9695265,931
1742842580.9705806,931
1742842580.9716337,931
1742842580.9726865,934
1742842580.9737403,933
1742842580.974794,933
1742842580.9758475,933
1742842580.976901,931
1742842580.9779546,930
1742842580.9790084,931
1742842580.9800625,931
1742842580.9811165,931
1742842580.98217,932
1742842580.9832244,931
1742842580.984277,932
1742842580.9853303,931
1742842580.9863842,931
1742842580.987437,932
1742842580.9884913,929
1742842580.9895442,932
1742842580.9905977,931
1742842580.9916515,932
1742842580.9927077,933
1742842580.9937944,933
1742842580.9948337,932
1742842580.9958827,933
1742842580.996937,931
1742842580.9979916,931
1742842580.9990623,927
1742842581.000111,931
1742842581.001165,931
1742842581.0022175,931
1742842581.003283,931
1742842581.0043306,931
1742842581.0053833,931
1742842581.006437,932
1742842581.0074904,932
1742842581.0085437,931
1742842581.0095975,931
1742842581.0106504,931
1742842581.0117037,930
1742842581.012757,931
1742842581.0138109,931
1742842581.014864,931
1742842581.015917,926
1742842581.0169704,912
1742842581.0180242,896
1742842581.019077,882
1742842581.0201306,866
1742842581.0211837,851
1742842581.0222387,835
1742842581.0232916,820
1742842581.024345,804
1742842581.0254223,791
1742842581.0264523,773
1742842581.0275056,758
1742842581.0285587,742
1742842581.0296128,727
1742842581.0306656,712
1742842581.0317178,697
1742842581.032771,682
1742842581.033836,670
1742842581.0348964,660
1742842581.035946,641
1742842581.0369978,628
1742842581.038051,614
1742842581.0391033,602
1742842581.040156,589
1742842581.0412085,577
1742842581.042263,564
1742842581.043316,552
1742842581.0443692,541
1742842581.0454228,529
1742842581.0464766,518
1742842581.0475295,507
1742842581.0485826,495
1742842581.0496364,485
1742842581.0506904,474
1742842581.0517433,465
1742842581.0527964,455
1742842581.0538502,445
1742842581.054904,436
1742842581.0559568,427
1742842581.0570102,417
1742842581.0580642,411
1742842581.059118,402
1742842581.0601707,393
1742842581.061224,385
1742842581.062278,378
1742842581.0633314,370
1742842581.0643842,362
1742842581.0654378,354
1742842581.0664876,348
1742842581.0675442,340
1742842581.0685976,333
1742842581.0696514,326
1742842581.0707052,319
1742842581.071758,313
1742842581.0728118,306
1742842581.0738645,300
1742842581.0749176,294
1742842581.07597,288
1742842581.077023,282
1742842581.0780778,277
1742842581.0791314,271
1742842581.0801852,268
1742842581.0812542,275
1742842581.0823107,279
1742842581.0834012,286
1742842581.0844383,282
1742842581.0854886,279
1742842581.0865397,275
1742842581.0876112,271
1742842581.0886555,266
1742842581.089706,261
1742842581.0907815,256
1742842581.0919077,256
1742842581.0929346,546
1742842581.0939853,932
1742842581.0950432,931
1742842581.0974088,932
1742842581.0982277,930
1742842581.0992877,931
1742842581.100329,932
1742842581.1016548,931
1742842581.1024635,932
1742842581.1035192,931
1742842581.1045735,931
1742842581.1056345,931
1742842581.1066842,932
1742842581.1077378,932
1742842581.1087918,932
1742842581.109855,932
1742842581.1109047,931
1742842581.1119585,931
1742842581.113013,931
1742842581.1140764,933
1742842581.1151264,934
1742842581.1161797,932
1742842581.1172342,932
1742842581.118298,932
1742842581.1193478,931
1742842581.1204016,932
1742842581.1214585,932
1742842581.1225197,934
1742842581.1235693,932
1742842581.124623,932
1742842581.1256776,932
1742842581.1267376,933
1742842581.1277885,932
1742842581.1288424,932
1742842581.1298966,932
1742842581.130959,932
1742842581.1320095,934
1742842581.1330633,934
1742842581.1341197,932
1742842581.1351814,932
1742842581.136232,931
1742842581.1372857,932
1742842581.1383402,933
1742842581.1394022,933
1742842581.1415124,931
1742842581.1425576,934
1742842581.143605,933
1742842581.144658,932
1742842581.145711,932
1742842581.1467733,930
1742842581.1478195,933
1742842581.1488738,933
1742842581.149928,933
1742842581.150983,933
1742842581.1520367,932
1742842581.1530907,932
1742842581.1541495,932
1742842581.1552033,933
1742842581.1562567,932
1742842581.157311,932
1742842581.158367,932
1742842581.1594222,932
1742842581.1604764,932
1742842581.1615317,932
1742842581.1625888,933
1742842581.1636434,932
1742842581.1646976,931
1742842581.1657536,931
1742842581.1668084,932
1742842581.1678638,933
1742842581.1689177,932
1742842581.1699736,931
1742842581.1710281,931
1742842581.1720836,931
1742842581.173138,933
1742842581.1741931,933
1742842581.175248,933
1742842581.1763034,932
1742842581.1773577,932
1742842581.1784132,933
1742842581.1794677,932
1742842581.1805232,932
1742842581.181578,932
1742842581.1826327,932
1742842581.1836884,932
1742842581.1847427,932
1742842581.1857977,933
1742842581.1868525,933
1742842581.187904,931
1742842581.188962,932
1742842581.1900175,932
1742842581.1910784,932
1742842581.1921277,931
1742842581.1931818,931
1742842581.194237,931
1742842581.1952913,931
1742842581.196347,932
1742842581.197401,932
1742842581.1984558,935
1742842581.1995108,932
1742842581.2005663,931
1742842581.201621,931
1742842581.2026758,931
1742842581.2037306,931
1742842581.204786,933
1742842581.2058406,933
1742842581.2068954,932
1742842581.2079504,932
1742842581.2090058,932
1742842581.2100606,931
1742842581.2111154,932
1742842581.2121713,932
1742842581.213226,931
1742842581.2142806,933
1742842581.2153351,932
1742842581.2164128,930
1742842581.2175076,931
1742842581.2185526,931
1742842581.2196062,932
1742842581.220661,930
1742842581.221718,909
1742842581.2227721,892
1742842581.2238271,874
1742842581.2248788,859
1742842581.2259378,841
1742842581.226993,823
1742842581.228048,807
1742842581.2291036,790
1742842581.2301588,773
1742842581.2312138,756
1742842581.232269,740
1742842581.2333248,725
1742842581.2343798,711
1742842581.235435,696
1742842581.2364895,680
1742842581.2375457,664
1742842581.2386003,650
1742842581.2396553,636
1742842581.2407105,623
1742842581.2417667,609
1742842581.242821,595
1742842581.243876,583
1742842581.2449307,570
1742842581.2459862,557
1742842581.2470398,545
1742842581.2480943,533
1742842581.2491484,521
1742842581.2502062,510
1742842581.2512598,499
1742842581.2523148,489
1742842581.2533698,478
1742842581.2544255,468
1742842581.2554798,458
1742842581.2565346,448
1742842581.2575905,438
1742842581.258646,430
1742842581.2597003,421
1742842581.2607553,412
1742842581.2618504,404
1742842581.262865,395
1742842581.2639198,386
1742842581.264975,377
1742842581.2660306,371
1742842581.2670848,362
1742842581.2681398,355
1742842581.2691948,348
1742842581.2702506,340
1742842581.2713046,333
1742842581.2723596,326
1742842581.2734153,319
1742842581.27447,313
1742842581.2755246,306
1742842581.2765796,300
1742842581.277635,293
1742842581.2786906,288
1742842581.2797449,282
1742842581.2807996,276
1742842581.2818553,270
1742842581.2829108,265
1742842581.283965,259
1742842581.28502,254
1742842581.286075,249
1742842581.287223,247
1742842581.2882712,242
1742842581.28934,239
1742842581.2903893,234
1742842581.2914703,230
1742842581.292524,225
1742842581.2935803,221
1742842581.2946541,220
1742842581.2956991,216
1742842581.296763,214
1742842581.2978158,211
1742842581.298867,209
1742842581.299926,205
1742842581.3009813,201
1742842581.3020372,199
1742842581.303093,195
1742842581.3041477,191
1742842581.305203,188
1742842581.3062582,184
1742842581.3073142,181
1742842581.3083687,178
1742842581.309425,174
1742842581.3104794,171
1742842581.3115356,168
1742842581.3125901,165
1742842581.3136468,162
1742842581.314702,159
1742842581.315758,156
1742842581.3168128,154
1742842581.3178685,151
1742842581.3189237,148
1742842581.3199797,146
1742842581.3210344,143
1742842581.3220901,141
1742842581.3231456,139
1742842581.3242018,137
1742842581.3252563,134
1742842581.3263118,132
1742842581.3273673,129
1742842581.3284235,128
1742842581.3294787,125
1742842581.330534,123
1742842581.3315892,121
1742842581.3326454,119
1742842581.3337004,117
1742842581.3347557,115
1742842581.3358405,114
1742842581.3368666,112
1742842581.3379223,111
1742842581.3389773,109
1742842581.340033,107
1742842581.341088,176
1742842581.3421447,704
1742842581.3431995,931
1742842581.3442554,932
1742842581.3453102,931
1742842581.3463662,932
1742842581.3474214,933
1742842581.3484771,932
1742842581.3495326,932
1742842581.3505878,932
1742842581.351643,932
1742842581.352699,932
1742842581.3537543,933
1742842581.3548098,932
1742842581.355865,932
1742842581.3569212,935
1742842581.3579764,934
1742842581.359032,933
1742842581.3600872,932
1742842581.3611429,931
1742842581.3621979,932
1742842581.3632526,933
1742842581.3643079,933
1742842581.365364,932
1742842581.3664186,932
1742842581.3674738,932
1742842581.3685293,932
1742842581.369586,932
1742842581.3706403,933
1742842581.3716955,934
1742842581.3727522,932
1742842581.3738074,932
1742842581.3748624,933
1742842581.3759177,932
1742842581.3769698,931
1742842581.3780289,932
1742842581.379084,932
1742842581.3801394,932
1742842581.3811955,932
1742842581.3822508,932
1742842581.383317,932
1742842581.3843663,932
1742842581.3854241,932
1742842581.3864753,934
1742842581.3875294,933
1742842581.388584,932
1742842581.3896394,932
1742842581.3906934,933
1742842581.3917534,931
1742842581.392808,932
1742842581.3938632,932
1742842581.394917,932
1742842581.3959713,931
1742842581.3970258,932
1742842581.3980832,933
1742842581.399138,933
1742842581.4001932,932
1742842581.4012487,932
1742842581.4023046,932
1742842581.4033594,932
1742842581.4044147,932
1742842581.4054713,933
1742842581.4065273,934
1742842581.4075818,932
1742842581.4086373,934
1742842581.409693,933
1742842581.410749,933
1742842581.4118037,932
1742842581.412859,932
1742842581.4139392,931
1742842581.41497,933
1742842581.4160252,932
1742842581.4170806,931
1742842581.4181366,932
1742842581.4191911,932
1742842581.4202466,932
1742842581.4213018,932
1742842581.4223578,932
1742842581.4234126,932
1742842581.4244678,932
1742842581.425524,932
1742842581.42658,932
1742842581.4276345,933
1742842581.42869,932
1742842581.4297457,934
1742842581.4308019,932
1742842581.4318564,932
1742842581.4329119,932
1742842581.4339676,932
1742842581.4350235,933
1742842581.4360783,932
1742842581.4371336,931
1742842581.4381895,931
1742842581.4392455,932
1742842581.4403002,932
1742842581.4413555,932
1742842581.4424114,932
1742842581.4434676,932
1742842581.4445221,932
1742842581.4455786,932
1742842581.4466338,932
1742842581.4476898,934
1742842581.4487638,932
1742842581.4498153,932
1742842581.4508932,933
1742842581.451951,932
1742842581.4529955,932
1742842581.454051,931
1742842581.4551165,935
1742842581.4561799,932
1742842581.457286,932
1742842581.458307,932
1742842581.4594142,931
1742842581.4604588,931
1742842581.4615319,930
1742842581.4625742,931
1742842581.4636397,933
1742842581.4647026,931
1742842581.46575,931
1742842581.4668047,931
1742842581.4678485,931
1742842581.4689002,931
1742842581.469963,932
1742842581.4710147,931
1742842581.4720685,931
1742842581.4731226,930
1742842581.4741783,912
1742842581.4752436,893
1742842581.4762938,876
1742842581.4773476,859
1742842581.478404,841
1742842581.4794583,823
1742842581.480524,807
1742842581.4815733,790
1742842581.4826272,774
1742842581.4837003,757
1742842581.4847472,741
1742842581.485811,724
1742842581.4868772,709
1742842581.4879243,693
1742842581.4889803,679
1742842581.4900444,663
1742842581.491123,655
1742842581.4921923,643
1742842581.4935563,627
1742842581.4946108,617
1742842581.4956665,613
1742842581.4967499,607
1742842581.4977982,596
1742842581.4988542,584
1742842581.4999144,572
1742842581.5009732,562
1742842581.5020373,551
1742842581.5030863,538
1742842581.504151,526
1742842581.5052266,518
1742842581.5064766,510
1742842581.507504,501
1742842581.5086434,491
1742842581.509707,480
1742842581.5108323,470
1742842581.5119464,461
1742842581.5130262,453
1742842581.514085,443
1742842581.5153768,439
1742842581.516426,431
1742842581.517611,427
1742842581.5186207,422
1742842581.5197072,418
1742842581.520816,412
1742842581.5218177,405
1742842581.5228708,398
1742842581.5239227,391
1742842581.525003,390
1742842581.5260484,435
1742842581.527105,908
1742842581.528157,933
1742842581.5292099,933
1742842581.5302656,933
1742842581.5313272,932
1742842581.5323787,932
1742842581.5334332,933
1742842581.534487,931
1742842581.535557,932
1742842581.5366082,932
1742842581.5415862,932
1742842581.5426567,932
1742842581.5437326,932
1742842581.5448203,932
1742842581.5459626,932
1742842581.5469706,933
1742842581.5480618,933
1742842581.549165,933
1742842581.5501986,932
1742842581.5512912,931
1742842581.5523741,933
1742842581.5534678,931
1742842581.5545142,933
1742842581.555615,933
1742842581.5566962,931
1742842581.5577784,932
1742842581.5588214,934
1742842581.559916,934
1742842581.5609987,932
1742842581.5620863,933
1742842581.5631409,932
1742842581.564256,933
1742842581.5653002,932
1742842581.5663733,931
1742842581.567413,931
1742842581.5710032,932
1742842581.572066,933
1742842581.5731597,934
1742842581.5742412,934
1742842581.5752718,933
1742842581.5763106,932
1742842581.5773602,932
1742842581.578414,933
1742842581.5795622,929
1742842581.5805619,932
1742842581.581613,931
1742842581.5826697,932
1742842581.5837445,932
1742842581.5851657,931
1742842581.586202,932
1742842581.5872498,931
1742842581.5883079,933
1742842581.5893579,932
1742842581.5904114,932
1742842581.591465,932
1742842581.592527,932
1742842581.5935786,931
1742842581.5946312,932
1742842581.5956857,932
1742842581.5967414,932
1742842581.5977983,931
1742842581.5988739,930
1742842581.599916,933
1742842581.6009734,933
1742842581.6020236,934
1742842581.6030755,933
1742842581.6041286,933
1742842581.6051877,932
1742842581.606237,932
1742842581.607289,932
1742842581.6083593,931
1742842581.609409,931
1742842581.6104593,931
1742842581.6115115,931
1742842581.6125958,929
1742842581.613607,928
1742842581.6146688,932
1742842581.6157486,928
1742842581.6167698,930
1742842581.6178193,932
1742842581.6188715,931
1742842581.6199248,932
1742842581.620983,932
1742842581.6220336,931
1742842581.6230857,932
1742842581.6241386,932
1742842581.6251967,932
1742842581.6262472,931
1742842581.6272998,932
1742842581.6283524,932
1742842581.6294174,931
1742842581.6304612,932
1742842581.6315138,931
1742842581.6325665,931
1742842581.6336253,932
1742842581.6346755,932
1742842581.6357284,932
1742842581.636781,932
1742842581.6378393,931
1742842581.63889,931
1742842581.6399424,931
1742842581.6409953,931
1742842581.6420553,931
1742842581.6445029,930
1742842581.6455402,929
1742842581.6465907,931
1742842581.647643,931
1742842581.6486957,931
1742842581.649754,931
1742842581.6508043,931
1742842581.6518571,926
1742842581.65291,911
1742842581.653968,892
1742842581.6550186,876
1742842581.656071,859
1742842581.6571238,843
1742842581.6581848,826
1742842581.6592338,809
1742842581.6602862,795
1742842581.6613388,778
1742842581.6623971,762
1742842581.6634476,747
1742842581.6645,730
1742842581.665553,715
1742842581.6666114,700
1742842581.667662,686
1742842581.6687143,670
1742842581.6697674,656
1742842581.6708257,641
1742842581.6718762,628
1742842581.6729286,615
1742842581.6739824,601
1742842581.6750414,589
1742842581.676092,576
1742842581.6771448,563
1742842581.6781986,552
1742842581.6792576,540
1742842581.6803079,529
1742842581.681361,517
1742842581.6824193,506
1742842581.6834843,500
1742842581.6845384,495
1742842581.6855893,481
1742842581.6866565,473
1742842581.687733,466
1742842581.6887794,458
1742842581.6898355,450
1742842581.6908882,441
1742842581.6919386,433
1742842581.692991,425
1742842581.6940434,417
1742842581.695103,409
1742842581.6961534,401
1742842581.6972058,394
1742842581.6982589,386
1742842581.699317,379
1742842581.7003677,370
1742842581.7014203,363
1742842581.702473,356
1742842581.7035315,348
1742842581.7045817,341
1742842581.7056344,334
1742842581.706687,327
1742842581.707745,321
1742842581.7087953,314
1742842581.7098484,307
1742842581.710901,301
1742842581.7119594,295
1742842581.7130098,289
1742842581.7140634,283
1742842581.7151163,277
1742842581.7161756,272
1742842581.717226,267
1742842581.7182791,262
1742842581.7193325,256
1742842581.7203913,251
1742842581.7214422,246
1742842581.7224941,242
1742842581.7235525,237
1742842581.7246099,233
1742842581.7256603,229
1742842581.7267125,224
1742842581.7277806,221
1742842581.7288382,216
1742842581.7298882,212
1742842581.7309413,209
1742842581.7319996,205
1742842581.7330503,201
1742842581.7341032,197
1742842581.7351563,193
1742842581.736215,190
1742842581.7372656,186
1742842581.7383187,183
1742842581.7393715,180
1742842581.7404306,178
1742842581.7414815,175
1742842581.7425342,172
1742842581.743587,169
1742842581.744646,167
1742842581.7456973,164
1742842581.7467496,161
1742842581.747803,158
1742842581.748862,156
1742842581.7499127,153
1742842581.7509658,151
1742842581.7520187,148
1742842581.7530777,146
1742842581.7541285,143
1742842581.7551813,141
1742842581.7562342,139
1742842581.757293,137
1742842581.7583437,149
1742842581.7593966,553
1742842581.7604492,931
1742842581.7614863,930
1742842581.7625363,932
1742842581.763589,932
1742842581.764647,932
1742842581.765705,932
1742842581.7667556,932
1742842581.767808,932
1742842581.768876,929
1742842581.769941,929
1742842581.7709897,932
1742842581.7720528,931
1742842581.7731063,931
1742842581.7741573,933
1742842581.77521,933
1742842581.7762754,932
1742842581.7773297,931
1742842581.77838,931
1742842581.7794325,931
1742842581.7804854,932
1742842581.781545,933
1742842581.7825956,931
1742842581.7836487,932
1742842581.7847013,932
1742842581.785761,931
1742842581.7868114,932
1742842581.7878642,931
1742842581.7889173,932
1742842581.7899764,932
1742842581.7910268,932
1742842581.79208,932
1742842581.793133,931
1742842581.794192,932
1742842581.795242,931
1742842581.7962952,932
1742842581.7973483,934
1742842581.7984073,933
1742842581.7994578,932
1742842581.8005104,932
1742842581.8015637,931
1742842581.8026228,932
1742842581.803673,933
1742842581.8047261,932
1742842581.8057842,932
1742842581.8068423,931
1742842581.807892,932
1742842581.8089452,932
1742842581.8100207,929
1742842581.8110616,932
1742842581.8121119,932
1742842581.8131647,933
1742842581.8141844,931
1742842581.8152347,932
1742842581.8162873,932
1742842581.8173401,931
1742842581.8183994,933
1742842581.81945,933
1742842581.8205028,932
1742842581.8215568,931
1742842581.8226159,932
1742842581.8236659,933
1742842581.824719,931
1742842581.8257725,932
1742842581.8268316,931
1742842581.827882,933
1742842581.8289347,933
1742842581.8299882,933
1742842581.831048,932
1742842581.832098,932
1742842581.8331509,932
1742842581.8342047,931
1742842581.8352637,931
1742842581.8363142,931
1742842581.837367,932
1742842581.8384206,932
1742842581.8394802,931
1742842581.8405302,932
1742842581.8415837,931
1742842581.8426368,931
1742842581.8436959,933
1742842581.8447459,933
1742842581.8457997,933
1742842581.8468525,934
1742842581.8479116,933
1742842581.848962,933
1742842581.8500154,932
1742842581.8511086,929
1742842581.8521192,932
1742842581.8531704,932
1742842581.8542242,931
1742842581.855274,932
1742842581.8563242,932
1742842581.8573759,931
1742842581.8584926,930
1742842581.859546,931
1742842581.8605962,932
1742842581.8616498,931
1742842581.8627021,934
1742842581.8637605,932
1742842581.8648105,932
1742842581.8658633,931
1742842581.8669164,931
1742842581.8679755,932
1742842581.869025,933
1742842581.8700778,932
1742842581.8711307,932
1742842581.8721893,932
1742842581.8732393,932
1742842581.874293,932
1742842581.875346,933
1742842581.8764052,932
1742842581.8774605,931
1742842581.8785086,932
1742842581.8795614,932
1742842581.8806202,931
1742842581.8816712,931
1742842581.8827329,931
1742842581.883782,931
1742842581.88484,931
1742842581.8858902,934
1742842581.886952,917
1742842581.8880062,900
1742842581.889063,882
1742842581.8901122,865
1742842581.8911648,849
1742842581.8922331,835
1742842581.8932455,816
1742842581.8942966,799
1742842581.895349,783
1742842581.8964024,768
1742842581.8974512,751
1742842581.8985038,735
1742842581.8995562,720
1742842581.9006143,705
1742842581.9016645,690
1742842581.9027169,675
1742842581.9037695,661
1742842581.9048276,647
1742842581.905879,633
1742842581.9069314,619
1742842581.9079845,606
1742842581.9090436,594
1742842581.910094,581
1742842581.911147,568
1742842581.9122,558
1742842581.9132566,548
1742842581.9143112,535
1742842581.9153638,523
1742842581.916417,513
1742842581.9174762,502
1742842581.9185264,491
1742842581.9195788,481
1742842581.9206321,471
1742842581.9216914,461
1742842581.9227414,451
1742842581.9237945,442
1742842581.9248474,433
1742842581.9259067,424
1742842581.9269571,415
1742842581.9280097,406
1742842581.9290626,398
1742842581.9301221,391
1742842581.9311724,383
1742842581.9322293,376
1742842581.9333305,369
1742842581.9343424,361
1742842581.9353921,354
1742842581.936445,346
1742842581.937497,340
1742842581.9385467,333
1742842581.939598,326
1742842581.9406512,319
1742842581.9417098,313
1742842581.9427607,307
1742842581.9438133,300
1742842581.9448667,294
1742842581.9459252,289
1742842581.9469888,288
1742842581.9480364,283
1742842581.9490983,282
1742842581.9501543,278
1742842581.9512038,274
1742842581.9522567,270
1742842581.95331,265
1742842581.9543688,260
1742842581.9554281,257
1742842581.956486,254
1742842581.9575355,249
1742842581.9585938,245
1742842581.9596443,241
1742842581.9607124,239
1742842581.9617746,255
1742842581.9628232,571
1742842581.96389,930
1742842581.9649343,932
1742842581.9659905,932
1742842581.967047,934
1742842581.9681072,932
1742842581.9691575,932
1742842581.9702096,932
1742842581.9712622,932
1742842581.972324,931
1742842581.9733763,931
1742842581.9744277,932
1742842581.9754806,931
1742842581.9765337,932
1742842581.9775932,931
1742842581.9786453,931
1742842581.9796977,931
1742842581.9807558,931
1742842581.9818208,932
1742842581.982878,931
1742842581.9839258,931
1742842581.9849844,931
1742842581.9860396,931
1742842581.9870937,932
1742842581.9881449,931
1742842581.989198,932
1742842581.9902515,932
1742842581.9913118,932
1742842581.9923673,931
1742842581.9934213,932
1742842581.9944735,933
1742842581.9956195,933
1742842581.996671,932
1742842581.9977145,932
1742842581.9987664,933
1742842581.9998255,932
1742842582.0008883,931
1742842582.0019476,932
1742842582.0029948,932
1742842582.004054,931
1742842582.0051036,932
1742842582.0061731,932
1742842582.0072176,933
1742842582.0082765,933
1742842582.0093257,932
1742842582.0103793,932
1742842582.0114317,932
1742842582.0124907,931
1742842582.0135403,932
1742842582.014593,931
1742842582.0156455,932
1742842582.016705,932
1742842582.0177546,933
1742842582.018807,934
1742842582.0198598,932
1742842582.0209188,931
1742842582.0219684,932
1742842582.0230193,933
1742842582.0240722,933
1742842582.0251305,932
1742842582.026182,933
1742842582.0272346,933
1742842582.0282874,932
1742842582.0293465,933
1742842582.0303974,932
1742842582.0314503,932
1742842582.0325084,932
1742842582.0335665,931
1742842582.0346162,932
1742842582.035669,931
1742842582.0367444,931
1742842582.0377836,930
1742842582.0388374,931
1742842582.0398903,932
1742842582.0409093,932
1742842582.0419605,933
1742842582.0430133,931
1742842582.0440662,932
1742842582.045125,933
1742842582.0461757,933
1742842582.0472288,934
1742842582.048282,932
1742842582.049341,931
1742842582.050392,932
1742842582.0514445,933
1742842582.0524976,933
1742842582.0535574,932
1742842582.0546076,932
1742842582.0556602,932
1742842582.0568438,930
1742842582.0579004,929
1742842582.058953,931
1742842582.0600057,932
1742842582.0610583,931
1742842582.0621178,933
1742842582.0631778,931
1742842582.0642276,931
1742842582.0652883,931
1742842582.0663426,932
1742842582.0673926,933
1742842582.068445,932
1742842582.069469,932
1742842582.070527,931
1742842582.071577,932
1742842582.0726297,931
1742842582.0737438,928
1742842582.0747542,931
1742842582.0758052,932
1742842582.0768578,932
1742842582.0779095,930
1742842582.0789635,932
1742842582.0800133,931
1742842582.0810657,931
1742842582.082125,931
1742842582.0831838,931
1742842582.0842328,931
1742842582.0852852,931
1742842582.0863435,930
1742842582.0874026,932
1742842582.0884519,931
1742842582.0894666,932
1742842582.090525,916
1742842582.0915751,896
1742842582.092636,879
1742842582.0936944,863
1742842582.094748,842
1742842582.0957983,827
1742842582.0968506,810
1742842582.0979042,794
1742842582.0989618,776
1742842582.1000276,770
1742842582.1010756,758
1742842582.1021395,751
1742842582.1033206,742
1742842582.1043165,721
1742842582.1053624,711
1742842582.1064155,699
1742842582.1074739,688
1742842582.108524,675
1742842582.1095774,663
1742842582.1106298,651
1742842582.1116884,639
1742842582.1127386,628
1742842582.1137915,615
1742842582.1148942,603
1742842582.1159046,591
1742842582.1169558,578
1742842582.1180086,566
1742842582.1190612,555
1742842582.1201108,542
1742842582.1211622,531
1742842582.1222167,520
1742842582.1232748,509
1742842582.1243253,498
1742842582.1253786,487
1742842582.1264315,477
1742842582.1274893,468
1742842582.1285398,458
1742842582.1295938,448
1742842582.1306465,440
1742842582.1317055,430
1742842582.1327562,420
1742842582.1338089,411
1742842582.1348615,403
1742842582.1359193,395
1742842582.13697,386
1742842582.1380236,378
1742842582.1390767,370
1742842582.1401358,363
1742842582.1411862,356
1742842582.1422386,348
1742842582.1432917,341
1742842582.1443493,334
1742842582.1454957,338
1742842582.1466188,340
1742842582.1475964,333
1742842582.1486456,328
1742842582.1496978,324
1742842582.1507504,318
1742842582.1518044,313
1742842582.1528568,307
1742842582.1539092,301
1742842582.1549618,295
1742842582.1560118,291
1742842582.1570678,285
1742842582.1581206,279
1742842582.1591737,274
1742842582.160227,269
1742842582.1612794,263
1742842582.1623335,259
1742842582.1633868,253
1742842582.1644394,248
1742842582.1654701,243
1742842582.1665232,239
1742842582.1675763,234
1742842582.1686304,230
1742842582.1696827,226
1742842582.1707356,221
1742842582.1717882,217
1742842582.1728418,213
1742842582.1738954,209
1742842582.1749485,205
1742842582.1760018,201
1742842582.1770556,198
1742842582.1781085,194
1742842582.1791615,190
1742842582.180215,186
1742842582.1812685,184
1742842582.1823223,180
1742842582.1833754,177
1742842582.1845603,179
1742842582.1856046,176
1742842582.1866562,174
1742842582.187709,171
1742842582.1887634,168
1742842582.1898155,166
1742842582.1908677,164
1742842582.1919208,161
1742842582.19297,159
1742842582.1940284,156
1742842582.1950803,153
1742842582.1961331,151
1742842582.1971865,150
1742842582.1982393,148
1742842582.199292,145
1742842582.2003448,143
1742842582.2013981,141
1742842582.202451,139
1742842582.2035036,136
1742842582.2045648,134
1742842582.2056146,133
1742842582.2066665,131
1742842582.207719,129
1742842582.2087722,166
1742842582.2098277,657
1742842582.2108803,931
1742842582.2119339,932
1742842582.2129867,932
1742842582.2140405,932
1742842582.2150936,932
1742842582.216147,932
1742842582.2172,932
1742842582.218254,932
1742842582.219307,932
1742842582.2203605,932
1742842582.2214143,932
1742842582.2224677,932
1742842582.2235203,932
1742842582.2245736,932
1742842582.225628,932
1742842582.2266817,932
1742842582.2277346,932
1742842582.228788,932
1742842582.2298737,929
1742842582.2308946,932
1742842582.2319481,932
1742842582.2330012,932
1742842582.2340553,931
1742842582.2351081,932
1742842582.2361612,932
1742842582.2372148,933
1742842582.2382686,932
1742842582.2393212,931
1742842582.2403748,932
1742842582.2414289,931
1742842582.242482,932
1742842582.2435348,932
1742842582.2445884,932
1742842582.2456422,931
1742842582.246696,933
1742842582.2477489,932
1742842582.248802,932
1742842582.2498558,932
1742842582.2509098,933
1742842582.2519627,933
1742842582.253016,933
1742842582.2540698,933
1742842582.2551234,934
1742842582.2561765,933
1742842582.2572298,933
1742842582.2582836,932
1742842582.2593374,932
1742842582.26039,932
1742842582.2614436,932
1742842582.262497,932
1742842582.2635508,933
1742842582.2646034,932
1742842582.2656565,931
1742842582.2667105,933
1742842582.2677627,931
1742842582.268815,932
1742842582.2698693,933
1742842582.270919,931
1742842582.2719765,934
1742842582.2730439,931
1742842582.2741034,932
1742842582.2751524,932
1742842582.2762043,932
1742842582.2772577,934
1742842582.2783122,932
1742842582.2793658,932
1742842582.2804217,932
1742842582.2814755,932
1742842582.2825284,932
1742842582.2835846,932
1742842582.2846365,932
1742842582.28569,932
1742842582.286743,933
1742842582.2877975,932
1742842582.28885,932
1742842582.289903,931
1742842582.2909555,932
1742842582.2920089,932
1742842582.2930615,931
1742842582.2941158,932
1742842582.295169,932
1742842582.2962227,933
1742842582.2972755,934
1742842582.2983286,933
1742842582.2993813,933
1742842582.3004346,932
1742842582.3014681,932
1742842582.3025217,932
1742842582.3035758,931
1742842582.3046284,931
1742842582.3056817,932
1742842582.3067348,931
1742842582.3077896,932
1742842582.308842,932
1742842582.3098958,932
1742842582.3109624,932
1742842582.312007,931
1742842582.313063,933
1742842582.3141172,932
1742842582.3151703,932
1742842582.3162243,932
1742842582.3172772,932
1742842582.3183308,931
1742842582.3193843,931
1742842582.320438,931
1742842582.3214912,931
1742842582.3225443,931
1742842582.323598,931
1742842582.3246517,931
1742842582.3257053,931
1742842582.3267586,931
1742842582.3278122,932
1742842582.3288658,932
1742842582.3299193,931
1742842582.3309727,932
1742842582.3320258,931
1742842582.3330798,931
1742842582.334133,931
1742842582.3351862,931
1742842582.3362396,932
1742842582.3372936,929
1742842582.338347,912
1742842582.3394003,894
1742842582.3404536,877
1742842582.3415082,860
1742842582.3425608,842
1742842582.343614,826
1742842582.3446674,812
1742842582.345722,794
1742842582.3467746,777
1742842582.347828,761
1742842582.348879,747
1742842582.349935,729
1742842582.3509884,713
1742842582.3520415,699
1742842582.353095,684
1742842582.3541486,669
1742842582.3552015,655
1742842582.356255,641
1742842582.3573086,627
1742842582.358362,614
1742842582.359415,600
1742842582.3604677,588
1742842582.3615224,576
1742842582.362575,564
1742842582.3636284,551
1742842582.3646817,540
1742842582.365736,527
1742842582.3667889,517
1742842582.3678422,505
1742842582.3688955,494
1742842582.3699496,484
1742842582.3710024,473
1742842582.372056,463
1742842582.3731093,454
1742842582.3741632,445
1742842582.3752162,436
1742842582.3762693,426
1742842582.3773227,417
1742842582.3783765,409
1742842582.3794293,400
1742842582.3804827,391
1742842582.3815365,383
1742842582.3825905,376
1742842582.3836539,370
1742842582.384703,364
1742842582.385757,356
1742842582.3868098,349
1742842582.3878627,342
1742842582.3889163,335
1742842582.3899655,329
1742842582.3910217,322
1742842582.3920748,315
1742842582.3931274,309
1742842582.3941824,303
1742842582.395235,298
1742842582.3962884,291
1742842582.3973417,285
1742842582.3983955,279
1742842582.3994489,274
1742842582.400502,268
1742842582.4015563,263
1742842582.40261,258
1742842582.4036632,253
1742842582.4047163,248
1742842582.4057703,242
1742842582.4068239,238
1742842582.407877,233
1742842582.40893,229
1742842582.409984,224
1742842582.411038,220
1742842582.4120905,216
1742842582.4131444,212
1742842582.4141977,208
1742842582.4152517,205
1742842582.4163043,200
1742842582.4173582,197
1742842582.4184115,192
1742842582.4194653,189
1742842582.4205182,186
1742842582.4215722,183
1742842582.4226253,179
1742842582.423679,177
1742842582.424732,173
1742842582.4257855,170
1742842582.4268513,167
1742842582.4278922,164
1742842582.4289458,162
1742842582.4299998,159
1742842582.4310534,157
1742842582.4321063,154
1742842582.4331594,151
1742842582.4342134,148
1742842582.4352677,147
1742842582.4363358,147
1742842582.4373944,147
1742842582.4384425,145
1742842582.4394965,143
1742842582.440549,141
1742842582.4416032,139
1742842582.442656,166
1742842582.4437063,623
1742842582.444767,932
1742842582.4458199,933
1742842582.4468884,931
1742842582.4479375,932
1742842582.4490066,932
1742842582.450055,933
1742842582.4511073,932
1742842582.4521756,930
1742842582.4532332,931
1742842582.4542828,933
1742842582.4554737,928
1742842582.4565537,930
1742842582.4584408,933
1742842582.459,932
1742842582.4600434,932
1742842582.4610932,932
1742842582.4621499,932
1742842582.463202,932
1742842582.464257,931
1742842582.4653087,932
1742842582.4663615,931
1742842582.467415,932
1742842582.4684672,932
1742842582.4695265,931
1742842582.470577,935
1742842582.47163,932
1742842582.472683,932
1742842582.4737363,934
1742842582.4747972,933
1742842582.4758515,932
1742842582.476903,932
1742842582.4779577,931
1742842582.4790144,933
1742842582.4800713,933
1742842582.4811285,932
1742842582.482184,932
1742842582.4832342,932
1742842582.4842992,931
1742842582.485346,931
1742842582.4864063,931
1742842582.4874656,931
1742842582.488516,934
1742842582.489567,933
1742842582.490774,934
1742842582.4916923,935
1742842582.492745,933
1742842582.4937932,934
1742842582.4948456,932
1742842582.4959836,931
1742842582.4971752,934
1742842582.49821,932
1742842582.49926,933
1742842582.5003188,931
1742842582.501383,931
1742842582.5024323,932
1742842582.5034819,933
1742842582.5045412,932
1742842582.5055914,932
1742842582.506644,932
1742842582.507697,934
1742842582.508756,932
1742842582.5098064,932
1742842582.510859,931
1742842582.511917,932
1742842582.5129752,931
1742842582.514025,932
1742842582.5150776,934
1742842582.5161538,929
1742842582.5171947,932
1742842582.5182455,931
1742842582.519298,932
1742842582.5203183,931
1742842582.5213687,932
1742842582.5224218,932
1742842582.5234747,931
1742842582.5245333,933
1742842582.5255847,932
1742842582.5266376,933
1742842582.5276904,932
1742842582.5287492,933
1742842582.5298004,932
1742842582.5308533,933
1742842582.5319064,931
1742842582.5329652,934
1742842582.5340166,932
1742842582.5350688,932
1742842582.5361218,932
1742842582.5371814,932
1742842582.5382323,931
1742842582.5392852,932
1742842582.5403383,933
1742842582.541397,932
1742842582.5424478,931
1742842582.543501,932
1742842582.5445538,932
1742842582.5456133,931
1742842582.5466635,931
1742842582.5477164,932
1742842582.5487695,933
1742842582.549829,932
1742842582.5508792,932
1742842582.5519319,931
1742842582.5529852,931
1742842582.5540447,931
1742842582.555095,933
1742842582.5561478,932
1742842582.5572398,928
1742842582.558252,932
1742842582.5593028,931
1742842582.5603557,932
1742842582.5614064,930
1742842582.562463,931
1742842582.563514,931
1742842582.5645673,931
1742842582.5656261,931
1742842582.566677,931
1742842582.5677297,931
1742842582.5687828,931
1742842582.5698423,931
1742842582.5708923,932
1742842582.5719452,931
1742842582.5729983,913
1742842582.5740569,896
1742842582.5751076,876
1742842582.5761604,859
1742842582.5772138,841
1742842582.5782726,824
1742842582.5793228,807
1742842582.580376,790
1742842582.581435,777
1742842582.5824907,761
1742842582.583541,744
1742842582.5845938,730
1742842582.5856476,715
1742842582.5867069,699
1742842582.5877576,684
1742842582.5888104,671
1742842582.589867,658
1742842582.5909348,649
1742842582.5919805,632
1742842582.593033,620
1742842582.5940871,607
1742842582.5951464,595
1742842582.5961967,584
1742842582.5972497,571
1742842582.598332,561
1742842582.5993423,549
1742842582.6003933,536
1742842582.6014466,525
1742842582.6025002,515
1742842582.6035502,504
1742842582.6046019,493
1742842582.6056557,483
1742842582.606714,473
1742842582.6077647,463
1742842582.6088178,454
1742842582.6098714,444
1742842582.6109304,434
1742842582.611981,425
1742842582.6130335,416
1742842582.6140873,407
1742842582.6151462,399
1742842582.616197,391
1742842582.6172497,383
1742842582.6183035,374
1742842582.6193624,367
1742842582.6204128,360
1742842582.6214664,352
1742842582.6225193,344
1742842582.6235783,337
1742842582.624629,331
1742842582.625682,324
1742842582.6267352,317
1742842582.6277943,311
1742842582.6288445,304
1742842582.6298983,298
1742842582.6309507,291
1742842582.6320095,286
1742842582.6330595,281
1742842582.6341136,275
1742842582.6351662,269
1742842582.6362255,265
1742842582.6372755,260
1742842582.6383286,254
1742842582.6394205,250
1742842582.6404324,245
1742842582.6414835,240
1742842582.6425362,236
1742842582.643589,232
1742842582.644639,227
1742842582.645691,223
1742842582.648765,230
1742842582.649808,225
1742842582.650858,222
1742842582.6519103,220
1742842582.653002,218
1742842582.654013,214
1742842582.6550639,211
1742842582.656116,208
1742842582.6571662,206
1742842582.6582236,265
1742842582.6592817,784
1742842582.66033,932
1742842582.6613886,932
1742842582.6624386,931
1742842582.6634893,932
1742842582.6645417,932
1742842582.6656003,932
1742842582.6666503,931
1742842582.6677032,931
1742842582.6687558,932
1742842582.6698146,932
1742842582.6708648,932
1742842582.6719172,932
1742842582.6729703,932
1742842582.6740296,932
1742842582.6750798,932
1742842582.676133,932
1742842582.6771858,931
1742842582.6782448,932
1742842582.679295,932
1742842582.6803482,932
1742842582.681401,932
1742842582.6824598,931
1742842582.6835103,932
1742842582.6845722,933
1742842582.6856213,933
1742842582.6866794,933
1742842582.6877382,932
1742842582.688787,932
1742842582.6898398,932
1742842582.6908984,933
1742842582.6919482,932
1742842582.6930044,932
1742842582.6940756,930
1742842582.695086,933
1742842582.6961367,932
1742842582.6971893,932
1742842582.6982405,931
1742842582.6992905,932
1742842582.7003417,932
1742842582.7013943,932
1742842582.7024524,932
1742842582.703503,932
1742842582.7045553,932
1742842582.7056084,932
1742842582.7066667,934
1742842582.7077172,933
1742842582.7087696,932
1742842582.7098234,931
1742842582.7108822,934
1742842582.711933,932
1742842582.7129855,932
1742842582.7140393,932
1742842582.7150984,931
1742842582.7161489,932
1742842582.7172017,932
1742842582.7182555,932
1742842582.7193143,932
1742842582.7203648,932
1742842582.721418,933
1742842582.7224703,933
1742842582.7235296,932
1742842582.7245798,932
1742842582.725633,932
1742842582.7266862,931
1742842582.727745,931
1742842582.7287953,932
1742842582.7298493,932
1742842582.7309022,932
1742842582.731961,933
1742842582.7330115,933
1742842582.734065,932
1742842582.7351568,930
1742842582.7361681,932
1742842582.7372196,931
1742842582.738273,931
1742842582.7393227,931
1742842582.7403731,932
1742842582.741425,932
1742842582.7424886,931
1742842582.7435417,932
1742842582.744592,932
1742842582.7456455,931
1742842582.7466981,933
1742842582.7477567,932
1742842582.7488074,932
1742842582.749873,931
1742842582.7509305,932
1742842582.7519844,933
1742842582.7530344,932
1742842582.7540877,932
1742842582.7551405,932
1742842582.7561994,931
1742842582.7572498,931
1742842582.7583032,931
1742842582.7593563,932
1742842582.760415,931
1742842582.7614658,933
1742842582.7625186,932
1742842582.7635717,932
1742842582.7646303,931
1742842582.7656817,931
1742842582.7667344,931
1742842582.767787,931
1742842582.768846,931
1742842582.7698967,933
1742842582.7709494,931
1742842582.7720022,932
1742842582.7730613,931
1742842582.7741122,931
1742842582.7751646,932
1742842582.776244,928
1742842582.777255,931
1742842582.7783067,931
1742842582.7793596,934
1742842582.7804096,931
1742842582.7814658,932
1742842582.7825105,932
1742842582.7835634,932
1742842582.7846215,931
1742842582.785672,931
1742842582.7867243,931
1742842582.7877772,927
1742842582.788835,907
1742842582.7898855,892
1742842582.790938,875
1742842582.7919908,858
1742842582.7930493,840
1742842582.7941,823
1742842582.7951527,806
1742842582.7962053,791
1742842582.7972643,774
1742842582.7983153,757
1742842582.7993677,742
1742842582.8004208,727
1742842582.80148,712
1742842582.8025305,696
1742842582.803583,681
1742842582.804636,666
1742842582.8056953,652
1742842582.8067455,638
1742842582.8077984,624
1742842582.8088512,611
1742842582.8099105,599
1742842582.8109605,586
1742842582.8120134,574
1742842582.8130662,562
1742842582.8141346,556
1742842582.815188,547
1742842582.8162396,535
1742842582.817561,533
1742842582.8183563,521
1742842582.8194132,512
1742842582.820461,503
1742842582.8215141,494
1742842582.8225734,485
1742842582.8236232,475
1742842582.8247042,507
1742842582.826014,934
1742842582.8268123,932
1742842582.8278599,933
1742842582.8289118,932
1742842582.8300457,930
1742842582.8310518,932
1742842582.8321013,932
1742842582.8331542,931
1742842582.8342085,931
1742842582.835276,931
1742842582.8363323,929
1742842582.83738,932
1742842582.8384366,931
1742842582.8394868,932
1742842582.8405395,932
1742842582.8415923,933
1742842582.8426507,932
1742842582.8437006,933
1742842582.8447604,932
1742842582.8458107,934
1742842582.8468688,932
1742842582.847919,931
1742842582.8489716,931
1742842582.8500257,931
1742842582.851084,932
1742842582.852135,931
1742842582.8531876,931
1742842582.8542414,932
1742842582.8553004,934
1742842582.8563507,934
1742842582.8574038,934
1742842582.858466,931
1742842582.8595195,931
1742842582.8605697,931
1742842582.8616226,932
1742842582.8626752,932
1742842582.8637335,932
1742842582.8647835,932
1742842582.8658364,932
1742842582.866889,933
1742842582.8679476,932
1742842582.8689973,932
1742842582.8700502,932
1742842582.871143,929
1742842582.872155,932
1742842582.873205,933
1742842582.8742578,932
1742842582.8753102,932
1742842582.8763597,934
1742842582.8774335,932
1742842582.8784754,931
1742842582.8795297,931
1742842582.8805795,933
1742842582.881633,933
1742842582.8826861,932
1742842582.883746,931
1742842582.8848042,931
1742842582.8858528,932
1742842582.8869052,932
1742842582.8879967,934
1742842582.8890214,932
1742842582.8900726,931
1742842582.891125,932
1742842582.892184,931
1742842582.8932366,932
1742842582.894288,932
1742842582.8953404,932
1742842582.8964,932
1742842582.89745,933
1742842582.898502,933
1742842582.899555,933
1742842582.900613,932
1742842582.9016635,932
1742842582.9027162,931
1742842582.9037688,932
1742842582.9048274,932
1742842582.9058785,931
1742842582.9069312,931
1742842582.907984,932
1742842582.9090433,933
1742842582.910094,932
1742842582.9111466,932
1742842582.912239,930
1742842582.91325,933
1742842582.9143014,932
1742842582.915354,934
1742842582.9164045,930
1742842582.9174542,931
1742842582.9185054,931
1742842582.9195583,932
1742842582.9206164,931
1742842582.9216673,932
1742842582.9227202,931
1742842582.9237733,931
1742842582.924832,931
1742842582.9258823,931
1742842582.9269352,931
1742842582.9279883,931
1742842582.9290476,931
1742842582.9300973,931
1742842582.9311504,931
1742842582.9322033,931
1742842582.933262,933
1742842582.9343133,931
1742842582.9353762,931
1742842582.9364247,931
1742842582.9374743,931
1742842582.9385245,931
1742842582.939577,931
1742842582.9406297,931
1742842582.941689,931
1742842582.942739,931
1742842582.9437914,931
1742842582.9448442,931
1742842582.9459028,932
1742842582.9469633,930
1742842582.9480135,931
1742842582.9490805,930
1742842582.9501338,928
1742842582.9511836,915
1742842582.9522362,902
1742842582.9533408,890
1742842582.9543574,874
1742842582.955416,858
1742842582.9564636,844
1742842582.9575274,832
1742842582.958605,827
1742842582.959652,808
1742842582.9607115,795
1742842582.961762,778
1742842582.9628208,764
1742842582.9638698,745
1742842582.9649296,729
1742842582.965981,713
1742842582.967037,696
1742842582.9680898,680
1742842582.9691436,666
1742842582.9701962,651
1742842582.9712558,640
1742842582.972313,624
1742842582.9733636,611
1742842582.974417,598
1742842582.9754708,585
1742842582.976532,574
1742842582.9775856,564
1742842582.9786398,550
1742842582.9796975,539
1742842582.980756,526
1742842582.9818103,516
1742842582.9828663,504
1742842582.983916,494
1742842582.9849696,484
1742842582.9860225,474
1742842582.9870758,464
1742842582.988136,455
1742842582.9891927,446
1742842582.9902437,435
1742842582.9912977,428
1742842582.9926345,425
1742842582.9936714,424
1742842582.9947236,425
1742842582.995783,423
1742842582.9968462,424
1742842582.9979649,419
1742842582.998969,411
1742842583.0000236,405
1742842583.0010738,399
1742842583.0021398,401
1742842583.0031867,393
1742842583.0042446,385
1742842583.0052946,379
1742842583.006348,372
1742842583.0074003,365
1742842583.0084589,358
1742842583.009469,351
1742842583.0105214,344
1742842583.011574,337
1742842583.012633,331
1742842583.0136826,323
1742842583.0147352,316
1742842583.015788,310
1742842583.0168464,304
1742842583.0178962,298
1742842583.0189486,292
1742842583.0200012,286
1742842583.0210595,280
1742842583.0221097,274
1742842583.0231621,269
1742842583.024219,263
1742842583.0252764,259
1742842583.0263264,254
1742842583.027379,249
1742842583.028447,245
1742842583.0294757,240
1742842583.0305254,235
1742842583.0315778,231
1742842583.0326095,227
1742842583.0336626,224
1742842583.0347142,221
1742842583.035767,216
1742842583.0368261,213
1742842583.0378773,209
1742842583.03893,205
1742842583.0399828,201
1742842583.0410419,198
1742842583.0420923,194
1742842583.043145,191
1742842583.0441978,187
1742842583.0452569,184
1742842583.0463083,181
1742842583.0473607,178
1742842583.0484138,174
1742842583.0494733,172
1742842583.0505238,169
1742842583.0515764,166
1742842583.0526292,163
1742842583.0536888,160
1742842583.054739,157
1742842583.0557916,154
1742842583.0568447,152
1742842583.0579042,151
1742842583.0589657,325
1742842583.0600142,855
1742842583.0610669,931
1742842583.0621247,932
1742842583.063175,932
1742842583.064227,931
1742842583.06528,931
1742842583.0663383,932
1742842583.0673888,932
1742842583.0684412,932
1742842583.069525,928
1742842583.0705361,933
1742842583.0715885,934
1742842583.072655,931
1742842583.0737023,931
1742842583.0747542,932
1742842583.075807,932
1742842583.0768597,932
1742842583.0779147,932
1742842583.078967,932
1742842583.0800202,932
1742842583.0810735,932
1742842583.0821273,931
1742842583.0831802,932
1742842583.0842335,931
1742842583.0852866,932
1742842583.086341,932
1742842583.0873935,932
1742842583.088447,932
1742842583.089514,931
1742842583.0905638,931
1742842583.0916142,933
1742842583.0926669,932
1742842583.0937204,932
1742842583.0947735,931
1742842583.095826,932
1742842583.0968788,934
1742842583.0979333,933
1742842583.0989873,932
1742842583.10004,931
1742842583.101093,933
1742842583.1021464,934
1742842583.1031997,934
1742842583.104252,934
1742842583.1053047,931
1742842583.106359,931
1742842583.1074128,931
1742842583.1084657,933
1742842583.109519,934
1742842583.1105907,929
1742842583.1116095,933
1742842583.1126626,932
1742842583.1137168,931
1742842583.1147704,930
1742842583.115823,934
1742842583.1168766,933
1742842583.1179302,932
1742842583.118984,932
1742842583.1200368,932
1742842583.121089,932
1742842583.1221437,932
1742842583.1231964,932
1742842583.124249,932
1742842583.1253023,932
1742842583.126356,932
1742842583.1274095,932
1742842583.1284618,932
1742842583.1295154,932
1742842583.130569,932
1742842583.1316226,934
1742842583.1326756,934
1742842583.1337287,933
1742842583.1347818,932
1742842583.135836,932
1742842583.1368883,932
1742842583.1379423,931
1742842583.1389954,931
1742842583.1400492,932
1742842583.141102,932
1742842583.142156,932
1742842583.1432087,933
1742842583.1442626,934
1742842583.1453154,934
1742842583.1463687,933
1742842583.1474223,932
1742842583.148476,932
1742842583.1495306,932
1742842583.1505852,931
1742842583.1516423,929
1742842583.1526964,931
1742842583.1537495,934
1742842583.1548028,932
1742842583.1558564,932
1742842583.1569092,932
1742842583.1579623,933
1742842583.159015,931
1742842583.1600683,932
1742842583.1611207,931
1742842583.1621747,931
1742842583.1632283,931
1742842583.1642816,931
1742842583.1653345,931
1742842583.166388,931
1742842583.1674411,931
1742842583.1684947,931
1742842583.1695483,933
1742842583.1706014,933
1742842583.1716547,931
1742842583.1727083,931
1742842583.1737616,931
1742842583.1748147,931
1742842583.1758676,932
1742842583.1769214,931
1742842583.1779745,932
1742842583.179028,933
1742842583.1800811,933
1742842583.181135,932
1742842583.182188,932
1742842583.1832411,932
1742842583.1842945,932
1742842583.1853483,931
1742842583.1864014,932
1742842583.1874545,931
1742842583.188538,928
1742842583.1895611,914
1742842583.1906137,898
1742842583.1916666,880
1742842583.1927202,864
1742842583.1937733,844
1742842583.1948268,827
1742842583.19588,810
1742842583.1969333,792
1742842583.198003,778
1742842583.1990583,764
1742842583.2001104,747
1742842583.2011604,734
1742842583.2022212,722
1742842583.2032716,706
1742842583.2043333,691
1742842583.2053843,678
1742842583.2064378,664
1742842583.2074912,651
1742842583.2085443,638
1742842583.2095988,623
1742842583.2106519,611
1742842583.2117045,598
1742842583.212758,585
1742842583.213812,573
1742842583.2148652,561
1742842583.2159185,549
1742842583.2169719,537
1742842583.2180262,526
1742842583.2190785,515
1742842583.2201324,504
1742842583.2211854,493
1742842583.22224,483
1742842583.2232926,472
1742842583.2243462,462
1742842583.2253993,452
1742842583.2264535,443
1742842583.2275062,434
1742842583.2285597,424
1742842583.2296095,417
1742842583.2306662,407
1742842583.2317197,399
1742842583.2327728,391
1742842583.2338266,383
1742842583.2348797,375
1742842583.2359328,367
1742842583.2369862,359
1742842583.2380397,352
1742842583.2390919,344
1742842583.2404213,341
1742842583.241216,527
1742842583.242276,930
1742842583.2433226,932
1742842583.2443752,931
1742842583.2454293,932
1742842583.2464821,933
1742842583.247535,933
1742842583.2485883,934
1742842583.2496421,931
1742842583.250696,932
1742842583.2517486,932
1742842583.252802,933
1742842583.2538557,933
1742842583.2549095,932
1742842583.2559624,932
1742842583.2570155,932
1742842583.2580695,932
1742842583.259123,932
1742842583.260176,932
1742842583.2612293,932
1742842583.2622828,933
1742842583.2633364,933
1742842583.2643893,933
1742842583.2654426,931
1742842583.266496,931
1742842583.2675483,932
1742842583.268601,931
1742842583.269655,932
1742842583.2707047,931
1742842583.2717617,931
1742842583.2728148,933
1742842583.2738683,934
1742842583.2749221,932
1742842583.275975,932
1742842583.2770407,931
1742842583.2781,932
1742842583.27915,932
1742842583.2802022,932
1742842583.2812555,932
1742842583.2823088,932
1742842583.2833626,932
1742842583.2844157,932
1742842583.2854712,934
1742842583.286524,932
1742842583.287578,931
1742842583.2886367,934
1742842583.2896883,928
1742842583.2907395,932
1742842583.2917933,932
1742842583.2928455,934
1742842583.2939003,933
1742842583.294953,932
1742842583.296007,932
1742842583.2970598,932
1742842583.298113,931
1742842583.2991657,933
1742842583.300219,932
1742842583.3012714,931
1742842583.3023255,931
1742842583.3033786,933
1742842583.3044326,932
1742842583.3054855,932
1742842583.3065388,932
1742842583.307593,932
1742842583.308646,932
1742842583.3096998,932
1742842583.310753,931
1742842583.3118029,931
1742842583.3128595,932
1742842583.3139133,934
1742842583.3149667,933
1742842583.3160205,932
1742842583.3170736,932
1742842583.3181272,932
1742842583.3191805,933
1742842583.3202345,933
1742842583.3212872,934
1742842583.322341,933
1742842583.323394,932
1742842583.324448,932
1742842583.3255012,932
1742842583.3265543,932
1742842583.3276079,932
1742842583.3286614,931
1742842583.3297148,931
1742842583.3307679,933
1742842583.331821,933
1742842583.3328748,932
1742842583.3339279,932
1742842583.3349812,932
1742842583.3360343,932
1742842583.3370883,931
1742842583.3381417,931
1742842583.3391948,931
1742842583.3402483,932
1742842583.341302,931
1742842583.3423553,931
1742842583.3434083,932
1742842583.344462,932
1742842583.345516,931
1742842583.346569,934
1742842583.3476222,933
1742842583.3486881,932
1742842583.349729,931
1742842583.3507824,931
1742842583.351836,932
1742842583.3528895,930
1742842583.353943,931
1742842583.354996,931
1742842583.3560493,931
1742842583.357103,931
1742842583.3581562,931
1742842583.3592098,931
1742842583.3602629,931
1742842583.361317,931
1742842583.3623698,931
1742842583.3634233,931
1742842583.3644767,930
1742842583.3655307,919
1742842583.3665836,904
1742842583.367637,890
1742842583.3686903,876
1742842583.3697443,859
1742842583.3707974,844
1742842583.3718505,830
1742842583.3729036,814
1742842583.3739579,797
1742842583.3750107,782
1742842583.376064,766
1742842583.3771174,752
1742842583.3781714,734
1742842583.3792243,720
1742842583.3802774,705
1742842583.3813307,690
1742842583.3823845,676
1742842583.3834476,663
1742842583.3844953,649
1742842583.3855488,637
1742842583.386602,623
1742842583.387655,610
1742842583.388708,598
1742842583.3897576,587
1742842583.390814,573
1742842583.3918667,560
1742842583.3929195,548
1742842583.3939745,537
1742842583.3950272,526
1742842583.3960807,515
1742842583.397134,504
1742842583.3981879,494
1742842583.3992407,483
1742842583.4002938,473
1742842583.4013472,463
1742842583.402401,453
1742842583.4034536,444
1742842583.4045072,434
1742842583.405561,424
1742842583.406615,415
1742842583.4076676,406
1742842583.4087212,397
1742842583.4097745,389
1742842583.4108286,381
1742842583.4118814,373
1742842583.4129345,365
1742842583.4139886,358
1742842583.4150424,351
1742842583.416095,343
1742842583.4171484,336
1742842583.4182022,329
1742842583.419256,322
1742842583.4203088,316
1742842583.4213622,309
1742842583.422416,303
1742842583.4234695,297
1742842583.4245224,291
1742842583.4255762,285
1742842583.4266427,280
1742842583.4276829,273
1742842583.4287362,268
1742842583.42979,262
1742842583.4308436,258
1742842583.431897,253
1742842583.43295,248
1742842583.4340034,242
1742842583.4350574,238
1742842583.4361103,233
1742842583.4371638,229
1742842583.4382172,224
1742842583.439271,220
1742842583.4403236,216
1742842583.4413776,212
1742842583.442431,208
1742842583.4434848,204
1742842583.4445376,200
1742842583.4455912,196
1742842583.4466448,193
1742842583.4477153,194
1742842583.4487607,191
1742842583.4498303,194
1742842583.4508765,191
1742842583.4519422,189
1742842583.4529905,186
1742842583.454057,185
1742842583.4551117,185
1742842583.4561648,182
1742842583.457217,180
1742842583.45838,427
1742842583.4594183,922
1742842583.460479,930
1742842583.4615266,931
1742842583.462583,932
1742842583.4636319,933
1742842583.464685,932
1742842583.4657402,932
1742842583.4667902,932
1742842583.467843,932
1742842583.468896,932
1742842583.4699497,933
1742842583.4710016,932
1742842583.4720547,932
1742842583.4731073,932
1742842583.4741626,933
1742842583.475216,931
1742842583.4762692,932
1742842583.477325,932
1742842583.4783792,931
1742842583.4794338,932
1742842583.480487,932
1742842583.4815404,932
1742842583.4825928,932
1742842583.4836466,932
1742842583.484703,931
1742842583.4857554,933
1742842583.4868093,932
1742842583.4878604,933
1742842583.4889157,933
1742842583.489967,933
1742842583.49102,934
1742842583.4920728,933
1742842583.4931312,933
1742842583.4942179,930
1742842583.4952588,932
1742842583.49631,932
1742842583.4973636,932
1742842583.4984176,935
1742842583.4994843,931
1742842583.5005445,931
1742842583.501596,932
1742842583.502646,931
1742842583.5040715,935
1742842583.5047596,933
1742842583.5058117,930
1742842583.5068624,932
1742842583.507915,934
1742842583.5089676,932
1742842583.5100214,932
1742842583.5110736,932
1742842583.5121262,932
1742842583.513179,932
1742842583.5142329,932
1742842583.5152853,932
1742842583.516337,934
1742842583.5173895,933
1742842583.518443,933
1742842583.5194955,933
1742842583.520548,932
1742842583.5216029,932
1742842583.5226564,933
1742842583.5237093,934
1742842583.5247626,933
1742842583.525816,931
1742842583.52687,931
1742842583.5279226,933
1742842583.5289762,932
1742842583.5300303,932
1742842583.5310843,932
1742842583.532137,932
1742842583.5331905,931
1742842583.534244,932
1742842583.535298,931
1742842583.5363507,932
1742842583.537404,932
1742842583.538458,932
1742842583.539512,931
1742842583.5405645,931
1742842583.5416183,932
1742842583.5426726,932
1742842583.5437255,932
1742842583.5447783,932
1742842583.5458317,932
1742842583.5468814,931
1742842583.5479386,932
1742842583.5489917,932
1742842583.5500457,933
1742842583.5510995,931
1742842583.5521526,932
1742842583.5532057,932
1742842583.5542595,932
1742842583.5553145,933
1742842583.5563672,932
1742842583.557421,931
1742842583.5584738,932
1742842583.5595274,931
1742842583.5605803,932
1742842583.5616343,931
1742842583.5626876,932
1742842583.5637414,934
1742842583.5647943,933
1742842583.565848,931
1742842583.5669012,933
1742842583.5679553,934
1742842583.5690079,932
1742842583.5700617,933
1742842583.571115,933
1742842583.5721686,932
1742842583.5732217,932
1742842583.5742753,932
1742842583.5753286,932
1742842583.576383,932
1742842583.577474,931
1742842583.578517,930
1742842583.5795643,931
1742842583.5806177,931
1742842583.5816748,931
1742842583.5827303,929
1742842583.5837793,930
1742842583.5848315,931
1742842583.5858848,930
1742842583.5869381,915
1742842583.587988,899
1742842583.5890446,882
1742842583.5900981,867
1742842583.5911515,851
1742842583.592205,836
1742842583.593261,822
1742842583.5943131,811
1742842583.595366,788
1742842583.59642,772
1742842583.5974734,757
1742842583.5985265,742
1742842583.5995831,738
1742842583.600652,729
1742842583.6017475,729
1742842583.602794,728
1742842583.603947,716
1742842583.6049795,697
1742842583.606029,683
1742842583.6070826,670
1742842583.6081588,658
1742842583.60923,645
1742842583.6106918,624
1742842583.6117544,612
1742842583.612815,601
1742842583.6138768,586
1742842583.6149933,575
1742842583.6160655,561
1742842583.6171415,549
1742842583.6182199,537
1742842583.6192737,524
1742842583.620318,514
1742842583.6213775,502
1742842583.6224287,492
1742842583.6234853,482
1742842583.6245422,472
1742842583.6256015,463
1742842583.6266544,453
1742842583.6277108,444
1742842583.6287665,434
1742842583.629823,427
1742842583.630878,416
1742842583.6319335,408
1742842583.6329887,399
1742842583.6340442,391
1742842583.6351278,386
1742842583.6361752,380
1742842583.63726,376
1742842583.6382983,369
1742842583.6393473,365
1742842583.6403995,359
1742842583.6414566,355
1742842583.642507,349
1742842583.6435597,342
1742842583.6446126,337
1742842583.6456623,331
1742842583.6467268,325
1742842583.647805,324
1742842583.6488516,319
1742842583.6499,319
1742842583.6509533,323
1742842583.6520097,319
1742842583.6530745,314
1742842583.6541226,310
1742842583.6551735,310
1742842583.6562264,308
1742842583.657279,305
1742842583.6583338,308
1742842583.659386,602
1742842583.6604385,932
1742842583.6614656,933
1742842583.6625187,932
1742842583.6635711,932
1742842583.664624,932
1742842583.6656783,932
1742842583.6667314,932
1742842583.6677835,932
1742842583.6688364,932
1742842583.6698892,933
1742842583.6709425,932
1742842583.671995,931
1742842583.6730478,932
1742842583.6741006,931
1742842583.6751542,932
1742842583.6762066,932
1742842583.6772592,932
1742842583.6783123,932
1742842583.6793656,932
1742842583.6804178,931
1742842583.681465,932
1742842583.6825173,932
1742842583.6835706,932
1742842583.6846242,932
1742842583.685678,932
1742842583.686732,932
1742842583.687785,934
1742842583.6888375,932
1742842583.6898913,932
1742842583.690941,929
1742842583.691998,932
1742842583.693051,932
1742842583.6941044,934
1742842583.695158,933
1742842583.6962106,932
1742842583.697264,932
1742842583.6983173,932
1742842583.699371,932
1742842583.7004237,932
1742842583.7014768,932
1742842583.7025301,932
1742842583.7035847,932
1742842583.7046373,932
1742842583.705691,932
1742842583.706744,932
1742842583.7077978,933
1742842583.7088504,932
1742842583.7099042,932
1742842583.710957,932
1742842583.7120109,932
1742842583.7130635,932
1742842583.7141168,931
1742842583.7151704,932
1742842583.7162237,932
1742842583.7172763,933
1742842583.71833,933
1742842583.7193828,935
1742842583.7204366,933
1742842583.7214894,932
1742842583.7225425,934
1742842583.7235956,932
1742842583.724649,932
1742842583.7257018,933
1742842583.7267551,932
1742842583.727809,934
1742842583.728862,933
1742842583.7299151,932
1742842583.7309682,932
1742842583.7320182,932
1742842583.7330747,932
1742842583.7341285,932
1742842583.7351813,932
1742842583.736235,932
1742842583.737288,932
1742842583.738341,931
1742842583.7395153,928
1742842583.7405653,931
1742842583.7416184,931
1742842583.7426717,932
1742842583.7437248,932
1742842583.7447784,932
1742842583.7458317,932
1742842583.7468848,931
1742842583.7479382,931
1742842583.7489917,931
1742842583.7500448,931
1742842583.7510982,931
1742842583.7521513,931
1742842583.7532053,931
1742842583.7542584,931
1742842583.7553117,931
1742842583.7563648,933
1742842583.757419,932
1742842583.7584715,932
1742842583.7595246,931
1742842583.7605777,931
1742842583.761632,932
1742842583.7626846,932
1742842583.763738,932
1742842583.7648041,929
1742842583.765845,931
1742842583.7668982,931
1742842583.7679513,931
1742842583.769005,931
1742842583.7700582,931
1742842583.7711115,931
1742842583.7721646,932
1742842583.7732184,931
1742842583.7742715,931
1742842583.7753246,931
1742842583.776378,931
1742842583.7774322,931
1742842583.7786791,928
1742842583.7798023,930
1742842583.7808516,931
1742842583.7819066,932
1742842583.7829578,931
1742842583.7840152,931
1742842583.7850676,931
1742842583.7861211,916
1742842583.7871733,900
1742842583.7882268,886
1742842583.7892797,871
1742842583.7903337,855
1742842583.7913864,840
1742842583.7924395,824
1742842583.793495,810
1742842583.7945476,793
1742842583.7956002,777
1742842583.7966533,763
1742842583.7977033,750
1742842583.79876,732
1742842583.799813,716
1742842583.8008664,702
1742842583.8019202,687
1742842583.802973,672
1742842583.8040261,657
1742842583.8050792,643
1742842583.806133,630
1742842583.807186,616
1742842583.8082392,603
1742842583.8092923,591
1742842583.8103461,578
1742842583.811399,565
1742842583.812452,553
1742842583.813506,541
1742842583.8145595,530
1742842583.8156123,518
1742842583.8166656,507
1742842583.8177192,496
1742842583.818773,485
1742842583.8198256,474
1742842583.8208787,465
1742842583.8219323,455
1742842583.822986,446
1742842583.824039,436
1742842583.825092,427
1742842583.8261452,418
1742842583.827199,409
1742842583.8282516,401
1742842583.8293052,392
1742842583.8303587,384
1742842583.8314128,376
1742842583.832479,370
1742842583.833527,362
1742842583.8345957,356
1742842583.835633,348
1742842583.8366861,341
1742842583.8377395,334
1742842583.8387933,327
1742842583.839846,321
1742842583.840899,315
1742842583.8419528,308
1742842583.8430064,302
1742842583.8440592,295
1742842583.8451123,289
1742842583.8461657,284
1742842583.8472195,278
1742842583.8482723,273
1742842583.8493254,267
1742842583.8503792,262
1742842583.8514328,256
1742842583.8524857,251
1742842583.853539,246
1742842583.8545923,241
1742842583.855646,237
1742842583.856699,232
1742842583.8577523,227
1742842583.8588068,224
1742842583.8598607,220
1742842583.860913,216
1742842583.8619666,212
1742842583.8630197,207
1742842583.8640733,204
1742842583.865126,200
1742842583.8661792,197
1742842583.8672323,193
1742842583.8682857,190
